"date","V1","V2","V3","V4","V5","V6","V7","V8"
"2000-05-22 06:00:00.000 UTC",0.1446,1.4404,4.2689,-9.2554,-2.8426,0.2229,-2.565,-10.849
"2000-05-22 06:00:00.003 UTC",-0.1554,0.1404,3.3689,-10.555,-2.0426,-21.777,-16.565,-6.8493
"2000-05-22 06:00:00.008 UTC",2.1446,0.5404,4.4689,-7.7554,0.1574,-3.7771,-8.565,-18.849
"2000-05-22 06:00:00.011 UTC",1.9446,-2.2596,0.8689,-8.5554,0.4574,-11.777,-20.565,-28.849
"2000-05-22 06:00:00.016 UTC",3.3446,-0.7596,2.2689,-6.9554,1.6574,-9.7771,-26.565,-28.849
"2000-05-22 06:00:00.019 UTC",3.0446,-2.3596,2.5689,-7.7554,1.6574,-5.7771,-32.565,-30.849
"2000-05-22 06:00:00.024 UTC",4.1446,-3.8596,3.1689,-6.8554,1.8574,-13.777,-40.565,-54.849
"2000-05-22 06:00:00.027 UTC",4.0446,-4.7596,3.2689,-8.6554,2.7574,-13.777,-36.565,-34.849
"2000-05-22 06:00:00.031 UTC",5.9446,-2.8596,3.1689,-5.2554,4.4574,-3.7771,-24.565,-32.849
"2000-05-22 06:00:00.036 UTC",2.9446,-3.4596,0.7689,-7.3554,3.8574,-3.7771,-24.565,-36.849
"2000-05-22 06:00:00.039 UTC",-1.3554,-2.9596,2.0689,-6.3554,3.5574,-11.777,-28.565,-60.849
"2000-05-22 06:00:00.044 UTC",-3.4554,-5.4596,2.0689,-6.3554,4.6574,2.2229,-10.565,-26.849
"2000-05-22 06:00:00.047 UTC",-0.9554,-3.8596,4.5689,-5.9554,6.3574,-1.7771,-12.565,-10.849
"2000-05-22 06:00:00.052 UTC",0.9446,-4.8596,3.3689,-6.1554,6.1574,-7.7771,-24.565,-12.849
"2000-05-22 06:00:00.055 UTC",3.5446,-2.6596,4.6689,-2.8554,7.0574,8.2229,-14.565,-22.849
"2000-05-22 06:00:00.059 UTC",2.5446,-3.2596,2.4689,-2.4554,4.2574,2.2229,-12.565,-24.849
"2000-05-22 06:00:00.064 UTC",2.8446,-1.8596,1.4689,-2.8554,2.9574,0.2229,-20.565,-28.849
"2000-05-22 06:00:00.067 UTC",2.0446,-2.5596,-3.8311,-3.9554,-1.0426,-25.777,-26.565,-14.849
"2000-05-22 06:00:00.072 UTC",1.1446,-0.2596,-3.0311,0.3446,-0.9426,0.2229,-16.565,-4.8493
"2000-05-22 06:00:00.075 UTC",0.9446,-2.2596,-2.6311,0.8446,0.1574,6.2229,-0.565,-2.8493
"2000-05-22 06:00:00.080 UTC",-1.0554,-1.5596,-1.4311,1.4446,0.9574,-5.7771,-4.565,-0.8493
"2000-05-22 06:00:00.083 UTC",-2.5554,-1.1596,-0.2311,0.3446,1.4574,-17.777,-10.565,-8.8493
"2000-05-22 06:00:00.088 UTC",-3.9554,-3.8596,0.4689,-1.0554,1.4574,-15.777,-28.565,-20.849
"2000-05-22 06:00:00.092 UTC",-2.1554,-4.3596,1.9689,0.4446,4.7574,30.223,-34.565,-26.849
"2000-05-22 06:00:00.095 UTC",-2.1554,-7.5596,1.5689,0.9446,6.8574,54.223,-46.565,-12.849
"2000-05-22 06:00:00.100 UTC",-4.9554,-11.76,2.4689,3.9446,9.4574,74.223,-24.565,3.1507
"2000-05-22 06:00:00.103 UTC",-5.1554,-12.76,1.7689,4.9446,6.4574,62.223,-0.565,25.151
"2000-05-22 06:00:00.108 UTC",-9.2554,-7.4596,-3.7311,5.9446,-2.9426,20.223,89.435,125.15
"2000-05-22 06:00:00.111 UTC",-14.855,4.6404,-12.231,9.9446,-15.643,-75.777,241.44,275.15
"2000-05-22 06:00:00.116 UTC",-25.355,18.84,-27.231,12.745,-34.143,-225.78,425.43,455.15
"2000-05-22 06:00:00.120 UTC",-32.955,42.94,-42.531,12.345,-54.543,-405.78,571.43,577.15
"2000-05-22 06:00:00.123 UTC",-38.355,63.54,-54.331,10.045,-67.443,-543.78,713.43,709.15
"2000-05-22 06:00:00.128 UTC",-44.755,78.94,-63.131,7.1446,-82.443,-667.78,815.43,773.15
"2000-05-22 06:00:00.131 UTC",-46.755,90.84,-69.731,-1.2554,-90.843,-629.78,821.43,665.15
"2000-05-22 06:00:00.136 UTC",-27.455,97.64,-59.031,-15.055,-78.643,-439.78,575.43,283.15
"2000-05-22 06:00:00.139 UTC",4.4446,88.04,-35.431,-27.755,-52.443,-203.78,267.44,-56.849
"2000-05-22 06:00:00.144 UTC",24.245,63.44,-14.631,-35.455,-26.743,-45.777,-38.565,-270.85
"2000-05-22 06:00:00.148 UTC",33.945,35.94,4.5689,-34.255,-3.6426,98.223,-248.56,-408.85
"2000-05-22 06:00:00.151 UTC",33.545,9.1404,13.169,-24.455,12.357,198.22,-256.56,-334.85
"2000-05-22 06:00:00.156 UTC",25.645,-11.16,18.569,-12.155,21.557,194.22,-246.56,-264.85
"2000-05-22 06:00:00.159 UTC",16.245,-23.96,19.269,-3.3554,25.457,178.22,-222.56,-186.85
"2000-05-22 06:00:00.164 UTC",10.745,-30.06,17.869,1.3446,25.657,158.22,-218.56,-152.85
"2000-05-22 06:00:00.167 UTC",7.1446,-31.66,18.569,4.9446,25.757,154.22,-202.56,-124.85
"2000-05-22 06:00:00.172 UTC",5.9446,-31.16,16.769,4.7446,23.957,138.22,-214.56,-136.85
"2000-05-22 06:00:00.175 UTC",3.4446,-31.56,13.169,3.5446,22.357,134.22,-200.56,-114.85
"2000-05-22 06:00:00.179 UTC",4.0446,-30.06,15.369,6.2446,22.757,122.22,-190.56,-110.85
"2000-05-22 06:00:00.184 UTC",2.3446,-29.76,13.969,9.2446,21.857,120.22,-178.56,-100.85
"2000-05-22 06:00:00.187 UTC",2.2446,-29.66,14.069,6.7446,20.457,114.22,-168.56,-94.849
"2000-05-22 06:00:00.192 UTC",3.5446,-27.56,14.369,5.5446,17.657,102.22,-174.56,-112.85
"2000-05-22 06:00:00.195 UTC",3.4446,-27.96,14.769,4.8446,16.057,108.22,-138.56,-88.849
"2000-05-22 06:00:00.200 UTC",3.6446,-23.16,13.769,5.6446,16.357,106.22,-126.56,-74.849
"2000-05-22 06:00:00.203 UTC",4.1446,-20.56,15.969,7.6446,17.057,104.22,-106.56,-56.849
"2000-05-22 06:00:00.207 UTC",4.3446,-20.36,14.769,5.7446,15.957,76.223,-114.56,-62.849
"2000-05-22 06:00:00.212 UTC",3.5446,-18.46,12.769,4.8446,14.357,84.223,-106.56,-68.849
"2000-05-22 06:00:00.215 UTC",2.0446,-14.46,7.1689,4.1446,11.157,72.223,-100.56,-70.849
"2000-05-22 06:00:00.220 UTC",2.0446,-11.36,5.4689,6.1446,9.2574,72.223,-96.565,-66.849
"2000-05-22 06:00:00.223 UTC",1.5446,-10.76,5.4689,7.2446,9.0574,70.223,-74.565,-62.849
"2000-05-22 06:00:00.228 UTC",0.5446,-13.06,3.6689,5.7446,9.1574,58.223,-62.565,-44.849
"2000-05-22 06:00:00.231 UTC",1.2446,-12.46,3.7689,4.9446,8.8574,42.223,-76.565,-54.849
"2000-05-22 06:00:00.235 UTC",1.7446,-12.66,5.0689,4.5446,7.4574,40.223,-62.565,-48.849
"2000-05-22 06:00:00.240 UTC",0.4446,-11.76,3.8689,-0.0554,5.3574,32.223,-50.565,-10.849
"2000-05-22 06:00:00.243 UTC",0.5446,-9.5596,3.1689,0.6446,4.3574,28.223,-64.565,-36.849
"2000-05-22 06:00:00.248 UTC",-0.0554,-10.46,1.5689,2.1446,4.0574,36.223,-36.565,-18.849
"2000-05-22 06:00:00.251 UTC",1.1446,-9.3596,1.2689,1.7446,4.5574,40.223,-26.565,-10.849
"2000-05-22 06:00:00.256 UTC",2.9446,-6.0596,2.9689,3.3446,6.1574,36.223,-44.565,-28.849
"2000-05-22 06:00:00.259 UTC",0.8446,-6.8596,3.0689,3.5446,6.4574,30.223,-22.565,-14.849
"2000-05-22 06:00:00.264 UTC",-2.3554,-7.2596,3.2689,5.0446,5.7574,26.223,-28.565,-12.849
"2000-05-22 06:00:00.268 UTC",-2.3554,-7.0596,3.0689,5.2446,4.5574,20.223,-24.565,-8.8493
"2000-05-22 06:00:00.271 UTC",-1.4554,-7.4596,3.2689,5.8446,4.7574,32.223,-14.565,-8.8493
"2000-05-22 06:00:00.276 UTC",-3.1554,-6.8596,1.5689,2.4446,3.0574,18.223,-6.565,3.1507
"2000-05-22 06:00:00.279 UTC",-1.3554,-2.9596,2.6689,4.2446,3.2574,14.223,-18.565,-12.849
"2000-05-22 06:00:00.284 UTC",-2.0554,-1.6596,1.1689,2.0446,1.7574,16.223,1.435,7.1507
"2000-05-22 06:00:00.287 UTC",-1.8554,-0.5596,0.9689,2.5446,0.6574,16.223,-6.565,1.1507
"2000-05-22 06:00:00.292 UTC",-0.8554,-1.2596,1.5689,3.6446,0.1574,16.223,-0.565,1.1507
"2000-05-22 06:00:00.296 UTC",-2.0554,-1.4596,-0.3311,2.5446,-0.4426,8.2229,11.435,25.151
"2000-05-22 06:00:00.299 UTC",-1.3554,-0.8596,0.6689,1.8446,0.2574,12.223,5.435,5.1507
"2000-05-22 06:00:00.304 UTC",-1.3554,-0.3596,-0.1311,4.2446,-0.6426,14.223,13.435,13.151
"2000-05-22 06:00:00.307 UTC",-0.2554,1.1404,-3.0311,5.9446,-0.9426,26.223,23.435,23.151
"2000-05-22 06:00:00.312 UTC",0.4446,2.7404,-4.9311,4.5446,-2.0426,2.2229,9.435,-0.8493
"2000-05-22 06:00:00.315 UTC",1.2446,4.7404,-4.7311,4.5446,-3.8426,-13.777,1.435,7.1507
"2000-05-22 06:00:00.320 UTC",1.2446,5.1404,-4.6311,5.4446,-3.9426,-11.777,13.435,23.151
"2000-05-22 06:00:00.324 UTC",-0.1554,5.2404,-5.1311,3.1446,-4.0426,-17.777,17.435,45.151
"2000-05-22 06:00:00.327 UTC",-0.1554,4.3404,-3.1311,2.9446,-3.8426,-17.777,33.435,37.151
"2000-05-22 06:00:00.332 UTC",-1.8554,1.1404,-4.3311,5.4446,-1.3426,-3.7771,43.435,51.151
"2000-05-22 06:00:00.335 UTC",-0.9554,1.2404,-4.3311,8.7446,-0.5426,-25.777,35.435,39.151
"2000-05-22 06:00:00.340 UTC",0.6446,5.0404,-7.7311,9.7446,-0.4426,-27.777,37.435,43.151
"2000-05-22 06:00:00.343 UTC",7.1446,11.64,-9.4311,9.8446,2.2574,-21.777,51.435,53.151
"2000-05-22 06:00:00.348 UTC",14.945,18.24,-12.631,7.5446,0.9574,-27.777,51.435,35.151
"2000-05-22 06:00:00.351 UTC",12.845,18.44,-16.931,7.4446,-5.2426,-13.777,57.435,47.151
"2000-05-22 06:00:00.355 UTC",3.3446,11.54,-17.031,6.1446,-13.243,-19.777,55.435,55.151
"2000-05-22 06:00:00.360 UTC",-13.255,-3.2596,-8.4311,3.1446,-18.543,-31.777,53.435,71.151
"2000-05-22 06:00:00.363 UTC",-20.055,-9.2596,-1.0311,0.3446,-14.543,-31.777,45.435,49.151
"2000-05-22 06:00:00.368 UTC",-16.155,-5.7596,-2.1311,1.1446,-10.243,-43.777,35.435,47.151
"2000-05-22 06:00:00.371 UTC",-8.0554,0.2404,-1.7311,3.8446,-6.2426,-37.777,57.435,49.151
"2000-05-22 06:00:00.376 UTC",-8.0554,2.5404,-3.8311,3.4446,-5.2426,-31.777,55.435,57.151
"2000-05-22 06:00:00.379 UTC",-8.7554,0.5404,-3.0311,4.9446,-4.3426,-35.777,47.435,51.151
"2000-05-22 06:00:00.383 UTC",-8.6554,-0.2596,-3.6311,3.5446,-3.8426,-33.777,53.435,61.151
"2000-05-22 06:00:00.388 UTC",-8.7554,1.6404,-2.6311,3.3446,-3.6426,-47.777,33.435,43.151
"2000-05-22 06:00:00.391 UTC",-7.2554,2.8404,-1.2311,3.2446,-1.3426,-19.777,47.435,29.151
"2000-05-22 06:00:00.396 UTC",-7.4554,-2.0596,-2.6311,-0.0554,-1.8426,-19.777,49.435,39.151
"2000-05-22 06:00:00.399 UTC",-5.2554,-1.7596,-2.4311,-0.7554,-1.9426,-17.777,43.435,39.151
"2000-05-22 06:00:00.404 UTC",-3.0554,-0.2596,-1.8311,-0.4554,-1.7426,-13.777,29.435,37.151
"2000-05-22 06:00:00.407 UTC",-3.2554,0.9404,-2.4311,0.3446,-1.6426,-19.777,23.435,23.151
"2000-05-22 06:00:00.411 UTC",-3.9554,-0.6596,-2.0311,1.9446,-1.3426,-19.777,-10.565,7.1507
"2000-05-22 06:00:00.416 UTC",-5.8554,-3.7596,-0.9311,2.4446,0.6574,10.223,17.435,55.151
"2000-05-22 06:00:00.419 UTC",-3.3554,-3.9596,0.6689,2.0446,2.6574,2.2229,-6.565,25.151
"2000-05-22 06:00:00.424 UTC",-1.5554,-4.9596,2.7689,4.1446,6.7574,12.223,-12.565,15.151
"2000-05-22 06:00:00.427 UTC",-0.0554,-7.7596,4.6689,1.3446,7.9574,4.2229,-32.565,-8.8493
"2000-05-22 06:00:00.432 UTC",3.2446,-5.0596,6.4689,1.0446,9.2574,34.223,-34.565,-38.849
"2000-05-22 06:00:00.435 UTC",2.8446,-6.8596,5.1689,1.1446,8.1574,50.223,-36.565,-28.849
"2000-05-22 06:00:00.440 UTC",7.9446,-4.8596,6.0689,0.2446,7.5574,60.223,-52.565,-56.849
"2000-05-22 06:00:00.444 UTC",7.2446,-6.8596,2.2689,-2.3554,4.4574,36.223,-70.565,-58.849
"2000-05-22 06:00:00.447 UTC",10.545,-3.1596,4.9689,-0.9554,6.0574,50.223,-72.565,-66.849
"2000-05-22 06:00:00.452 UTC",10.945,-1.9596,6.7689,0.9446,6.4574,54.223,-72.565,-82.849
"2000-05-22 06:00:00.455 UTC",10.045,-3.3596,6.1689,-0.8554,5.9574,52.223,-68.565,-76.849
"2000-05-22 06:00:00.460 UTC",9.4446,-3.5596,6.5689,-3.1554,4.9574,38.223,-98.565,-96.849
"2000-05-22 06:00:00.463 UTC",8.8446,-4.8596,5.7689,-5.5554,6.2574,72.223,-44.565,-36.849
"2000-05-22 06:00:00.468 UTC",11.045,-3.1596,4.6689,-4.2554,4.1574,20.223,-88.565,-102.85
"2000-05-22 06:00:00.472 UTC",9.6446,-3.4596,3.6689,-1.9554,5.1574,36.223,-74.565,-96.849
"2000-05-22 06:00:00.475 UTC",11.445,-1.8596,3.9689,-1.2554,6.3574,28.223,-62.565,-80.849
"2000-05-22 06:00:00.480 UTC",10.845,-2.1596,6.5689,-0.6554,8.1574,32.223,-54.565,-72.849
"2000-05-22 06:00:00.483 UTC",7.9446,-3.3596,6.4689,-3.5554,8.2574,18.223,-56.565,-62.849
"2000-05-22 06:00:00.488 UTC",7.4446,-3.7596,6.3689,-3.6554,8.2574,26.223,-64.565,-70.849
"2000-05-22 06:00:00.491 UTC",5.7446,-1.5596,5.7689,-4.0554,6.7574,32.223,-48.565,-48.849
"2000-05-22 06:00:00.496 UTC",8.4446,-0.4596,5.8689,-4.6554,5.6574,16.223,-56.565,-56.849
"2000-05-22 06:00:00.500 UTC",9.3446,-1.5596,5.9689,-3.8554,7.1574,40.223,-16.565,-38.849
"2000-05-22 06:00:00.503 UTC",9.2446,-3.5596,5.5689,-1.4554,5.2574,10.223,-46.565,-70.849
"2000-05-22 06:00:00.508 UTC",4.7446,-3.6596,4.1689,-1.0554,4.5574,16.223,-30.565,-44.849
"2000-05-22 06:00:00.511 UTC",1.9446,-2.3596,2.8689,-2.9554,4.7574,16.223,-28.565,-28.849
"2000-05-22 06:00:00.516 UTC",1.0446,-3.4596,3.3689,-2.7554,4.7574,12.223,-38.565,-32.849
"2000-05-22 06:00:00.519 UTC",1.0446,-4.5596,2.3689,-0.6554,2.4574,18.223,-34.565,-40.849
"2000-05-22 06:00:00.524 UTC",0.9446,-2.2596,0.0689,-2.5554,1.6574,14.223,-26.565,-28.849
"2000-05-22 06:00:00.527 UTC",1.9446,-0.5596,3.3689,-1.4554,3.6574,6.2229,-26.565,-24.849
"2000-05-22 06:00:00.531 UTC",0.6446,-1.8596,4.8689,-0.9554,5.1574,-1.7771,-18.565,-24.849
"2000-05-22 06:00:00.536 UTC",0.6446,-3.5596,6.0689,-0.5554,5.4574,0.2229,-14.565,-18.849
"2000-05-22 06:00:00.539 UTC",-0.4554,-4.4596,3.0689,1.0446,3.6574,-11.777,-40.565,-34.849
"2000-05-22 06:00:00.544 UTC",-0.0554,-1.7596,0.2689,0.2446,3.1574,8.2229,-12.565,-10.849
"2000-05-22 06:00:00.547 UTC",2.4446,2.3404,-0.1311,0.9446,0.3574,-15.777,-34.565,-42.849
"2000-05-22 06:00:00.552 UTC",1.3446,2.3404,-0.9311,0.4446,-0.3426,-5.7771,-22.565,-30.849
"2000-05-22 06:00:00.555 UTC",1.3446,1.2404,-0.6311,1.9446,-1.4426,6.2229,-14.565,-22.849
"2000-05-22 06:00:00.559 UTC",0.1446,-0.8596,-1.4311,3.2446,-0.9426,8.2229,-6.565,-16.849
"2000-05-22 06:00:00.564 UTC",0.0446,-2.0596,0.2689,-0.3554,-0.0426,2.2229,-14.565,-24.849
"2000-05-22 06:00:00.567 UTC",-1.9554,-0.5596,-0.0311,-2.5554,-0.9426,-21.777,-30.565,-16.849
"2000-05-22 06:00:00.572 UTC",-1.9554,0.2404,1.5689,-1.4554,-0.4426,-11.777,-12.565,13.151
"2000-05-22 06:00:00.575 UTC",-1.7554,0.3404,2.6689,0.5446,0.8574,4.2229,-0.565,11.151
"2000-05-22 06:00:00.580 UTC",-0.3554,1.2404,4.6689,-1.9554,0.2574,-3.7771,-10.565,-16.849
"2000-05-22 06:00:00.583 UTC",0.0446,-0.4596,3.2689,-3.6554,-0.3426,-7.7771,-14.565,-6.8493
"2000-05-22 06:00:00.588 UTC",1.8446,0.3404,0.5689,-2.5554,-0.2426,-11.777,-20.565,-14.849
"2000-05-22 06:00:00.592 UTC",0.4446,-1.7596,0.7689,-0.8554,1.8574,14.223,-4.565,-18.849
"2000-05-22 06:00:00.595 UTC",0.1446,-0.0596,-0.3311,-0.8554,0.3574,-7.7771,-26.565,-40.849
"2000-05-22 06:00:00.600 UTC",-1.8554,-1.0596,-0.9311,-1.1554,-0.2426,0.2229,-24.565,-38.849
"2000-05-22 06:00:00.603 UTC",-1.9554,-1.7596,-1.5311,-1.3554,-0.2426,2.2229,1.435,-12.849
"2000-05-22 06:00:00.608 UTC",0.3446,0.7404,-0.7311,-0.4554,-0.2426,-7.7771,-20.565,-24.849
"2000-05-22 06:00:00.611 UTC",-0.8554,1.8404,-0.8311,-1.3554,-1.3426,-21.777,-32.565,-30.849
"2000-05-22 06:00:00.616 UTC",-2.4554,-0.2596,-1.2311,-0.8554,-1.4426,-9.7771,-20.565,-24.849
"2000-05-22 06:00:00.620 UTC",-0.4554,0.1404,2.0689,-1.6554,-0.9426,0.2229,-2.565,-4.8493
"2000-05-22 06:00:00.623 UTC",2.0446,-0.9596,1.5689,0.3446,0.4574,18.223,9.435,-10.849
"2000-05-22 06:00:00.628 UTC",2.2446,-0.8596,1.4689,-0.9554,0.6574,-7.7771,-8.565,-16.849
"2000-05-22 06:00:00.631 UTC",0.5446,-1.0596,0.4689,-3.0554,0.9574,-17.777,-22.565,-22.849
"2000-05-22 06:00:00.636 UTC",0.2446,-1.7596,1.2689,-2.0554,1.6574,0.2229,-8.565,-24.849
"2000-05-22 06:00:00.639 UTC",-0.7554,-2.5596,-0.3311,-0.4554,0.2574,-1.7771,-14.565,-18.849
"2000-05-22 06:00:00.644 UTC",-1.7554,-1.9596,-0.7311,-0.2554,0.3574,10.223,-8.565,3.1507
"2000-05-22 06:00:00.648 UTC",1.2446,0.0404,-0.6311,-1.6554,-2.0426,-7.7771,-30.565,-14.849
"2000-05-22 06:00:00.651 UTC",0.7446,0.0404,-0.1311,-1.4554,-1.6426,12.223,-4.565,3.1507
"2000-05-22 06:00:00.656 UTC",0.2446,-1.4596,1.7689,0.2446,-2.2426,-1.7771,-22.565,-10.849
"2000-05-22 06:00:00.659 UTC",-0.7554,-0.7596,1.7689,0.6446,0.0574,8.2229,-4.565,-6.8493
"2000-05-22 06:00:00.664 UTC",-2.0554,-0.4596,1.2689,1.2446,0.0574,-9.7771,-12.565,-14.849
"2000-05-22 06:00:00.667 UTC",-1.0554,-0.1596,0.9689,3.0446,1.3574,6.2229,1.435,9.1507
"2000-05-22 06:00:00.672 UTC",-4.0554,1.4404,-0.0311,3.4446,2.3574,8.2229,9.435,19.151
"2000-05-22 06:00:00.675 UTC",-4.4554,1.5404,-1.6311,3.7446,1.8574,-5.7771,13.435,15.151
"2000-05-22 06:00:00.679 UTC",-4.4554,0.7404,-3.2311,2.3446,0.9574,14.223,25.435,27.151
"2000-05-22 06:00:00.684 UTC",-2.4554,3.5404,-2.1311,1.1446,-1.1426,34.223,43.435,31.151
"2000-05-22 06:00:00.687 UTC",-2.8554,5.5404,-4.5311,1.7446,-3.2426,32.223,41.435,35.151
"2000-05-22 06:00:00.692 UTC",-1.5554,7.3404,-5.7311,0.8446,-5.5426,2.2229,29.435,25.151
"2000-05-22 06:00:00.695 UTC",-3.4554,7.6404,-6.9311,1.6446,-6.3426,16.223,45.435,33.151
"2000-05-22 06:00:00.700 UTC",-5.2554,6.7404,-5.9311,-1.8554,-6.0426,10.223,39.435,51.151
"2000-05-22 06:00:00.703 UTC",-3.7554,6.6404,-4.4311,-1.1554,-2.8426,8.2229,49.435,49.151
"2000-05-22 06:00:00.707 UTC",-2.5554,2.9404,-4.3311,0.2446,-2.7426,-11.777,19.435,41.151
"2000-05-22 06:00:00.712 UTC",-2.2554,2.5404,-3.0311,-0.0554,-1.3426,-27.777,9.435,17.151
"2000-05-22 06:00:00.715 UTC",-1.8554,0.9404,-2.4311,-0.1554,-0.8426,-37.777,-10.565,-0.8493
"2000-05-22 06:00:00.720 UTC",-1.3554,-0.7596,-0.9311,1.6446,-1.3426,-33.777,1.435,-8.8493
"2000-05-22 06:00:00.723 UTC",-0.9554,-0.4596,-0.4311,0.5446,-3.4426,-47.777,-12.565,-32.849
"2000-05-22 06:00:00.728 UTC",0.0446,1.6404,1.2689,0.3446,-3.2426,-29.777,-4.565,-6.8493
"2000-05-22 06:00:00.731 UTC",0.1446,0.5404,0.5689,0.1446,-2.0426,-33.777,-18.565,-20.849
"2000-05-22 06:00:00.735 UTC",-5.0554,1.0404,1.3689,0.2446,-0.3426,-17.777,-12.565,-4.8493
"2000-05-22 06:00:00.740 UTC",-6.0554,-3.2596,1.1689,0.0446,-0.2426,-27.777,-36.565,-36.849
"2000-05-22 06:00:00.743 UTC",-6.4554,-4.8596,1.3689,-1.5554,-0.0426,-17.777,-32.565,-40.849
"2000-05-22 06:00:00.748 UTC",-5.7554,-3.5596,4.3689,-1.8554,0.4574,-13.777,-26.565,-22.849
"2000-05-22 06:00:00.751 UTC",-5.6554,-3.4596,5.3689,-0.8554,2.2574,-3.7771,-18.565,-18.849
"2000-05-22 06:00:00.756 UTC",-6.5554,-5.7596,5.0689,0.2446,3.2574,-3.7771,-28.565,-40.849
"2000-05-22 06:00:00.759 UTC",-5.6554,-4.7596,3.6689,-2.3554,2.0574,-13.777,-40.565,-52.849
"2000-05-22 06:00:00.764 UTC",-1.7554,-3.1596,3.0689,-1.4554,1.2574,-9.7771,-38.565,-48.849
"2000-05-22 06:00:00.768 UTC",-2.4554,-1.7596,2.4689,1.0446,2.0574,-9.7771,-38.565,-42.849
"2000-05-22 06:00:00.771 UTC",-1.3554,-1.1596,4.8689,4.2446,4.5574,2.2229,-14.565,-34.849
"2000-05-22 06:00:00.776 UTC",-2.8554,-3.3596,4.0689,-0.1554,3.1574,2.2229,-16.565,-14.849
"2000-05-22 06:00:00.779 UTC",-0.7554,0.0404,2.8689,-2.0554,1.7574,-9.7771,-28.565,-26.849
"2000-05-22 06:00:00.784 UTC",-2.3554,-2.4596,2.8689,-3.5554,3.2574,-7.7771,-28.565,-36.849
"2000-05-22 06:00:00.787 UTC",-2.2554,-6.0596,2.8689,-1.4554,3.6574,-11.777,-30.565,-36.849
"2000-05-22 06:00:00.792 UTC",0.0446,-4.1596,3.6689,1.4446,5.8574,-1.7771,-20.565,-28.849
"2000-05-22 06:00:00.796 UTC",1.9446,-0.0596,1.5689,4.1446,6.8574,-3.7771,-8.565,-18.849
"2000-05-22 06:00:00.799 UTC",6.5446,2.5404,-0.3311,6.5446,7.2574,-11.777,-22.565,-22.849
"2000-05-22 06:00:00.804 UTC",12.845,8.4404,-5.6311,6.3446,7.2574,-7.7771,-16.565,-14.849
"2000-05-22 06:00:00.807 UTC",15.445,13.24,-11.931,4.1446,1.8574,-7.7771,-12.565,-12.849
"2000-05-22 06:00:00.812 UTC",10.845,10.04,-14.331,0.6446,-5.4426,-27.777,-28.565,-24.849
"2000-05-22 06:00:00.815 UTC",-6.1554,-5.4596,-5.1311,-2.2554,-8.7426,-11.777,-14.565,-30.849
"2000-05-22 06:00:00.820 UTC",-19.755,-17.46,4.4689,-3.6554,-6.8426,-1.7771,-30.565,-24.849
"2000-05-22 06:00:00.824 UTC",-15.355,-15.56,9.5689,-0.6554,0.0574,30.223,-42.565,-22.849
"2000-05-22 06:00:00.827 UTC",-7.2554,-13.46,9.8689,1.4446,7.0574,64.223,-32.565,-2.8493
"2000-05-22 06:00:00.832 UTC",-6.5554,-14.96,6.3689,3.0446,7.0574,46.223,-52.565,-6.8493
"2000-05-22 06:00:00.835 UTC",-7.1554,-13.16,7.0689,7.1446,4.3574,54.223,-2.565,37.151
"2000-05-22 06:00:00.840 UTC",-12.155,-6.4596,0.1689,8.9446,-3.9426,14.223,141.44,189.15
"2000-05-22 06:00:00.843 UTC",-17.655,8.6404,-9.3311,12.645,-17.443,-97.777,297.44,345.15
"2000-05-22 06:00:00.848 UTC",-26.055,27.04,-25.431,12.445,-38.443,-267.78,465.43,483.15
"2000-05-22 06:00:00.851 UTC",-36.455,50.14,-44.131,6.5446,-59.343,-453.78,619.43,625.15
"2000-05-22 06:00:00.855 UTC",-42.755,68.74,-56.931,2.2446,-74.943,-633.78,723.43,717.15
"2000-05-22 06:00:00.860 UTC",-46.455,85.34,-67.131,0.3446,-89.443,-707.78,825.43,751.15
"2000-05-22 06:00:00.863 UTC",-43.955,100.64,-69.931,-8.4554,-92.743,-605.78,769.43,549.15
"2000-05-22 06:00:00.868 UTC",-21.155,101.14,-54.431,-22.355,-75.943,-393.78,517.43,201.15
"2000-05-22 06:00:00.871 UTC",9.9446,88.94,-32.331,-35.355,-49.543,-157.78,193.44,-112.85
"2000-05-22 06:00:00.876 UTC",29.445,60.54,-9.9311,-38.255,-21.943,20.223,-80.565,-318.85
"2000-05-22 06:00:00.879 UTC",37.745,29.54,7.4689,-32.755,0.7574,142.22,-246.56,-380.85
"2000-05-22 06:00:00.883 UTC",32.345,2.0404,14.969,-20.655,14.457,184.22,-276.56,-322.85
"2000-05-22 06:00:00.888 UTC",21.745,-16.56,18.269,-7.6554,23.057,188.22,-238.56,-240.85
"2000-05-22 06:00:00.891 UTC",13.445,-28.16,19.969,0.2446,26.157,164.22,-236.56,-196.85
"2000-05-22 06:00:00.896 UTC",9.1446,-33.06,21.369,4.5446,28.157,160.22,-220.56,-154.85
"2000-05-22 06:00:00.899 UTC",6.4446,-34.86,20.069,6.8446,27.157,156.22,-212.56,-118.85
"2000-05-22 06:00:00.904 UTC",6.3446,-33.06,17.569,4.8446,24.257,124.22,-232.56,-142.85
"2000-05-22 06:00:00.907 UTC",7.0446,-31.96,16.669,6.5446,22.557,126.22,-220.56,-134.85
"2000-05-22 06:00:00.911 UTC",6.2446,-29.16,15.869,8.6446,23.057,124.22,-196.56,-136.85
"2000-05-22 06:00:00.916 UTC",5.0446,-27.66,15.369,6.9446,23.057,122.22,-172.56,-126.85
"2000-05-22 06:00:00.919 UTC",5.2446,-26.66,14.469,6.2446,20.757,106.22,-182.56,-126.85
"2000-05-22 06:00:00.924 UTC",3.3446,-27.16,12.369,5.9446,19.457,108.22,-158.56,-90.849
"2000-05-22 06:00:00.927 UTC",4.4446,-22.86,11.169,4.4446,16.457,88.223,-162.56,-100.85
"2000-05-22 06:00:00.932 UTC",3.3446,-22.16,11.869,4.9446,16.257,104.22,-144.56,-100.85
"2000-05-22 06:00:00.935 UTC",3.9446,-21.86,9.5689,3.8446,15.457,112.22,-106.56,-60.849
"2000-05-22 06:00:00.940 UTC",3.8446,-17.86,7.2689,2.8446,12.757,66.223,-132.56,-84.849
"2000-05-22 06:00:00.944 UTC",3.1446,-17.56,9.2689,3.1446,14.457,84.223,-98.565,-56.849
"2000-05-22 06:00:00.947 UTC",2.0446,-18.26,7.4689,0.3446,11.157,40.223,-124.56,-86.849
"2000-05-22 06:00:00.952 UTC",1.0446,-15.16,6.4689,2.9446,11.457,68.223,-94.565,-70.849
"2000-05-22 06:00:00.955 UTC",0.8446,-13.46,5.0689,1.6446,9.9574,58.223,-90.565,-58.849
"2000-05-22 06:00:00.960 UTC",1.3446,-11.76,4.9689,-1.2554,9.2574,46.223,-88.565,-40.849
"2000-05-22 06:00:00.963 UTC",2.3446,-10.56,6.3689,-0.4554,10.057,62.223,-46.565,-14.849
"2000-05-22 06:00:00.968 UTC",4.3446,-10.06,4.4689,-0.3554,8.6574,44.223,-58.565,-46.849
"2000-05-22 06:00:00.972 UTC",4.2446,-6.6596,3.7689,0.9446,6.9574,44.223,-58.565,-40.849
"2000-05-22 06:00:00.975 UTC",3.5446,-4.1596,3.3689,-0.5554,6.4574,40.223,-56.565,-40.849
"2000-05-22 06:00:00.980 UTC",3.3446,-6.1596,2.3689,0.2446,6.8574,42.223,-50.565,-34.849
"2000-05-22 06:00:00.983 UTC",2.9446,-6.4596,2.5689,2.8446,6.3574,44.223,-32.565,-32.849
"2000-05-22 06:00:00.988 UTC",0.4446,-7.3596,1.6689,1.5446,4.1574,48.223,-18.565,-14.849
"2000-05-22 06:00:00.991 UTC",-0.0554,-5.9596,1.2689,0.4446,2.0574,28.223,-30.565,-12.849
"2000-05-22 06:00:00.996 UTC",-0.4554,-5.7596,2.1689,0.9446,2.9574,20.223,-32.565,-2.8493
"2000-05-22 06:00:01.000 UTC",-0.7554,-5.5596,3.5689,1.4446,3.0574,14.223,-26.565,-6.8493
"2000-05-22 06:00:01.003 UTC",-0.3554,-6.4596,2.8689,1.5446,3.6574,16.223,-30.565,-10.849
"2000-05-22 06:00:01.008 UTC",1.5446,-5.0596,2.3689,1.0446,3.1574,20.223,-10.565,-14.849
"2000-05-22 06:00:01.011 UTC",2.3446,-4.5596,1.4689,1.9446,2.0574,14.223,-20.565,-4.8493
"2000-05-22 06:00:01.016 UTC",3.2446,-2.8596,2.0689,2.9446,2.7574,4.2229,-18.565,-2.8493
"2000-05-22 06:00:01.019 UTC",1.8446,-1.8596,1.1689,3.4446,3.6574,32.223,15.435,23.151
"2000-05-22 06:00:01.024 UTC",5.2446,-1.0596,1.7689,3.6446,2.5574,16.223,-2.565,9.1507
"2000-05-22 06:00:01.027 UTC",4.3446,-1.3596,0.2689,1.2446,2.1574,10.223,-2.565,11.151
"2000-05-22 06:00:01.031 UTC",4.7446,-0.3596,-0.2311,-1.0554,-0.6426,-13.777,-10.565,7.1507
"2000-05-22 06:00:01.036 UTC",4.6446,3.0404,-0.4311,0.0446,-0.8426,-3.7771,-0.565,23.151
"2000-05-22 06:00:01.039 UTC",3.8446,1.7404,-0.4311,0.1446,-0.2426,-1.7771,3.435,23.151
"2000-05-22 06:00:01.044 UTC",2.9446,-0.1596,-0.6311,-0.8554,-1.1426,6.2229,25.435,31.151
"2000-05-22 06:00:01.047 UTC",3.4446,0.7404,-1.5311,1.1446,-2.6426,-1.7771,5.435,11.151
"2000-05-22 06:00:01.052 UTC",0.9446,-1.0596,-2.9311,1.1446,-2.8426,-11.777,15.435,37.151
"2000-05-22 06:00:01.055 UTC",0.4446,1.6404,-2.9311,1.3446,-3.1426,-21.777,11.435,31.151
"2000-05-22 06:00:01.059 UTC",-0.0554,2.9404,-3.7311,2.9446,-2.9426,-31.777,3.435,9.1507
"2000-05-22 06:00:01.064 UTC",-0.7554,3.2404,-3.7311,3.7446,-3.5426,-17.777,37.435,33.151
"2000-05-22 06:00:01.067 UTC",-1.2554,1.8404,-3.8311,5.3446,-3.3426,-9.7771,49.435,45.151
"2000-05-22 06:00:01.072 UTC",-1.1554,1.9404,-3.7311,3.9446,-4.3426,-19.777,47.435,45.151
"2000-05-22 06:00:01.075 UTC",-1.4554,2.5404,-2.3311,3.9446,-4.4426,-19.777,53.435,67.151
"2000-05-22 06:00:01.080 UTC",-2.3554,5.2404,-2.0311,5.2446,-4.2426,-29.777,51.435,63.151
"2000-05-22 06:00:01.083 UTC",-3.1554,5.7404,-1.0311,3.6446,-4.7426,-33.777,37.435,43.151
"2000-05-22 06:00:01.088 UTC",-6.2554,3.5404,-3.2311,1.2446,-4.6426,-33.777,47.435,55.151
"2000-05-22 06:00:01.092 UTC",-1.7554,7.7404,-2.7311,1.7446,-1.9426,-15.777,63.435,61.151
"2000-05-22 06:00:01.095 UTC",-0.6554,9.6404,-3.5311,1.7446,-3.2426,-31.777,51.435,65.151
"2000-05-22 06:00:01.100 UTC",0.6446,9.9404,-3.5311,1.9446,-3.6426,-17.777,57.435,69.151
"2000-05-22 06:00:01.103 UTC",0.9446,8.9404,-5.1311,0.9446,-6.2426,-47.777,33.435,43.151
"2000-05-22 06:00:01.108 UTC",0.2446,5.3404,-4.8311,3.5446,-4.7426,-31.777,39.435,51.151
"2000-05-22 06:00:01.111 UTC",-0.3554,8.1404,-4.1311,2.4446,-5.2426,-35.777,35.435,39.151
"2000-05-22 06:00:01.116 UTC",0.6446,8.7404,-5.6311,2.8446,-5.3426,-11.777,59.435,69.151
"2000-05-22 06:00:01.120 UTC",0.0446,8.7404,-5.4311,2.3446,-5.0426,-13.777,57.435,67.151
"2000-05-22 06:00:01.123 UTC",0.3446,7.2404,-4.0311,1.1446,-3.8426,-25.777,35.435,59.151
"2000-05-22 06:00:01.128 UTC",-0.9554,6.1404,-2.7311,2.0446,-2.9426,-11.777,31.435,43.151
"2000-05-22 06:00:01.131 UTC",0.0446,3.6404,-3.9311,0.3446,-2.2426,-25.777,17.435,29.151
"2000-05-22 06:00:01.136 UTC",0.3446,3.1404,-4.3311,1.8446,0.6574,-9.7771,17.435,31.151
"2000-05-22 06:00:01.139 UTC",0.6446,1.9404,-4.7311,2.2446,2.0574,-13.777,9.435,21.151
"2000-05-22 06:00:01.144 UTC",-0.0554,-0.3596,-2.5311,0.4446,3.8574,-15.777,1.435,21.151
"2000-05-22 06:00:01.148 UTC",-1.9554,-2.9596,-0.2311,0.4446,3.7574,-13.777,-32.565,-10.849
"2000-05-22 06:00:01.151 UTC",-4.2554,-3.6596,0.2689,-1.2554,3.8574,22.223,-6.565,13.151
"2000-05-22 06:00:01.156 UTC",-2.4554,-3.0596,0.8689,-4.8554,1.3574,10.223,-46.565,-30.849
"2000-05-22 06:00:01.159 UTC",0.6446,-4.7596,2.4689,-6.0554,2.7574,38.223,-40.565,-24.849
"2000-05-22 06:00:01.164 UTC",3.5446,-2.7596,4.5689,-5.3554,3.8574,46.223,-38.565,-24.849
"2000-05-22 06:00:01.167 UTC",5.5446,-1.3596,5.3689,-4.2554,3.9574,46.223,-46.565,-38.849
"2000-05-22 06:00:01.172 UTC",7.2446,-1.0596,6.5689,-4.2554,5.5574,46.223,-52.565,-44.849
"2000-05-22 06:00:01.175 UTC",6.8446,-3.0596,5.0689,-4.1554,6.8574,38.223,-62.565,-66.849
"2000-05-22 06:00:01.179 UTC",7.6446,-5.1596,6.0689,-3.2554,8.8574,50.223,-64.565,-78.849
"2000-05-22 06:00:01.184 UTC",7.7446,-5.0596,6.7689,-4.3554,8.0574,36.223,-78.565,-84.849
"2000-05-22 06:00:01.187 UTC",5.9446,-4.7596,6.9689,-4.7554,7.6574,42.223,-68.565,-82.849
"2000-05-22 06:00:01.192 UTC",5.1446,-6.3596,7.9689,-3.5554,7.3574,52.223,-52.565,-68.849
"2000-05-22 06:00:01.195 UTC",5.1446,-7.4596,7.8689,-1.9554,5.6574,24.223,-78.565,-94.849
"2000-05-22 06:00:01.200 UTC",5.6446,-6.4596,9.0689,-0.2554,6.4574,42.223,-64.565,-72.849
"2000-05-22 06:00:01.203 UTC",6.2446,-3.0596,8.2689,-1.9554,5.4574,18.223,-74.565,-80.849
"2000-05-22 06:00:01.207 UTC",6.7446,-2.8596,7.5689,-1.6554,7.0574,22.223,-66.565,-66.849
"2000-05-22 06:00:01.212 UTC",7.1446,-3.4596,7.8689,-1.1554,7.7574,50.223,-36.565,-56.849
"2000-05-22 06:00:01.215 UTC",6.3446,-3.0596,4.6689,-3.1554,4.8574,12.223,-64.565,-76.849
"2000-05-22 06:00:01.220 UTC",5.7446,-0.3596,6.0689,-1.7554,6.1574,40.223,-42.565,-48.849
"2000-05-22 06:00:01.223 UTC",4.6446,-2.3596,4.3689,-1.4554,4.1574,8.2229,-60.565,-62.849
"2000-05-22 06:00:01.228 UTC",4.7446,-3.0596,4.8689,1.4446,5.7574,32.223,-40.565,-44.849
"2000-05-22 06:00:01.231 UTC",5.0446,-3.5596,3.6689,-0.4554,3.8574,10.223,-46.565,-56.849
"2000-05-22 06:00:01.235 UTC",2.8446,-5.2596,3.9689,-0.9554,4.8574,34.223,-14.565,-28.849
"2000-05-22 06:00:01.240 UTC",4.1446,-4.7596,4.8689,-2.4554,4.3574,0.2229,-40.565,-42.849
"2000-05-22 06:00:01.243 UTC",2.9446,-3.4596,4.5689,-1.5554,4.3574,6.2229,-38.565,-44.849
"2000-05-22 06:00:01.248 UTC",3.8446,-3.0596,4.0689,1.8446,5.7574,28.223,-20.565,-24.849
"2000-05-22 06:00:01.251 UTC",4.2446,-3.0596,4.7689,5.3446,5.9574,8.2229,-38.565,-40.849
"2000-05-22 06:00:01.256 UTC",4.2446,-0.5596,3.2689,7.5446,7.3574,10.223,-28.565,-32.849
"2000-05-22 06:00:01.259 UTC",6.6446,1.4404,-1.0311,6.5446,10.057,12.223,-12.565,-20.849
"2000-05-22 06:00:01.264 UTC",14.845,10.64,-5.1311,6.6446,7.9574,2.2229,-14.565,-10.849
"2000-05-22 06:00:01.268 UTC",14.845,12.04,-8.8311,6.6446,1.6574,8.2229,-16.565,-28.849
"2000-05-22 06:00:01.271 UTC",7.3446,6.8404,-9.4311,5.4446,-3.8426,24.223,5.435,-10.849
"2000-05-22 06:00:01.276 UTC",-9.9554,-8.9596,-0.0311,2.5446,-7.9426,0.2229,-16.565,-24.849
"2000-05-22 06:00:01.279 UTC",-16.655,-15.76,8.7689,-0.6554,-4.1426,-3.7771,-32.565,-26.849
"2000-05-22 06:00:01.284 UTC",-11.855,-10.76,9.6689,0.1446,1.5574,16.223,-2.565,11.151
"2000-05-22 06:00:01.287 UTC",-3.0554,-6.6596,6.5689,0.2446,2.9574,0.2229,-16.565,-8.8493
"2000-05-22 06:00:01.292 UTC",-1.3554,-7.1596,5.6689,1.1446,2.8574,4.2229,-10.565,-4.8493
"2000-05-22 06:00:01.296 UTC",-1.0554,-5.4596,5.1689,2.8446,1.8574,16.223,-2.565,3.1507
"2000-05-22 06:00:01.299 UTC",-2.8554,-4.3596,5.9689,3.6446,1.9574,12.223,-12.565,-6.8493
"2000-05-22 06:00:01.304 UTC",-2.5554,-5.0596,6.0689,3.6446,3.4574,-5.7771,-30.565,-34.849
"2000-05-22 06:00:01.307 UTC",-3.0554,-5.5596,5.4689,3.0446,4.5574,-17.777,-28.565,-24.849
"2000-05-22 06:00:01.312 UTC",-2.3554,-4.9596,5.0689,3.1446,4.5574,-7.7771,-14.565,-10.849
"2000-05-22 06:00:01.315 UTC",-2.4554,-4.1596,4.6689,3.1446,3.2574,-5.7771,-14.565,-10.849
"2000-05-22 06:00:01.320 UTC",-0.8554,-3.8596,5.6689,4.3446,4.1574,34.223,9.435,-12.849
"2000-05-22 06:00:01.324 UTC",-0.2554,-3.6596,3.6689,1.8446,1.1574,12.223,-6.565,-18.849
"2000-05-22 06:00:01.327 UTC",-1.8554,-5.2596,3.3689,2.0446,0.8574,10.223,-16.565,-28.849
"2000-05-22 06:00:01.332 UTC",-2.3554,-4.6596,4.8689,2.3446,1.8574,4.2229,-8.565,-26.849
"2000-05-22 06:00:01.335 UTC",-0.4554,-3.9596,4.4689,1.9446,2.1574,8.2229,-8.565,-4.8493
"2000-05-22 06:00:01.340 UTC",-1.1554,-1.8596,3.6689,0.3446,1.2574,2.2229,-14.565,-10.849
"2000-05-22 06:00:01.343 UTC",-0.2554,-0.6596,2.5689,3.4446,1.8574,12.223,-0.565,-2.8493
"2000-05-22 06:00:01.348 UTC",-0.6554,-2.1596,2.3689,4.5446,2.8574,18.223,7.435,-2.8493
"2000-05-22 06:00:01.351 UTC",-2.2554,-2.4596,2.1689,2.5446,0.2574,0.2229,-12.565,-8.8493
"2000-05-22 06:00:01.355 UTC",-3.1554,-2.5596,3.1689,5.0446,1.1574,2.2229,-8.565,3.1507
"2000-05-22 06:00:01.360 UTC",-1.2554,-1.0596,3.4689,3.5446,1.6574,6.2229,7.435,15.151
"2000-05-22 06:00:01.363 UTC",-2.4554,-3.0596,4.0689,4.7446,4.2574,26.223,21.435,19.151
"2000-05-22 06:00:01.368 UTC",-3.1554,-2.8596,5.0689,4.2446,3.9574,26.223,23.435,11.151
"2000-05-22 06:00:01.371 UTC",-4.4554,-3.9596,1.6689,3.6446,1.1574,10.223,21.435,-2.8493
"2000-05-22 06:00:01.376 UTC",-6.0554,-4.1596,-0.6311,4.3446,-1.9426,0.2229,3.435,13.151
"2000-05-22 06:00:01.379 UTC",-4.9554,-1.7596,-2.4311,9.1446,-0.3426,44.223,51.435,55.151
"2000-05-22 06:00:01.383 UTC",-4.7554,1.9404,-3.4311,7.1446,-0.7426,32.223,45.435,51.151
"2000-05-22 06:00:01.388 UTC",-4.7554,0.9404,-3.3311,6.7446,-2.5426,16.223,39.435,31.151
"2000-05-22 06:00:01.391 UTC",-6.0554,0.2404,-3.2311,6.2446,-4.2426,18.223,43.435,31.151
"2000-05-22 06:00:01.396 UTC",-6.6554,1.5404,-1.9311,5.7446,-3.4426,22.223,55.435,41.151
"2000-05-22 06:00:01.399 UTC",-6.5554,1.2404,-1.3311,7.2446,-3.5426,-15.777,23.435,29.151
"2000-05-22 06:00:01.404 UTC",-4.3554,2.6404,-0.6311,6.5446,-2.2426,-15.777,19.435,25.151
"2000-05-22 06:00:01.407 UTC",-0.8554,1.8404,0.5689,6.2446,-1.7426,-13.777,21.435,23.151
"2000-05-22 06:00:01.411 UTC",1.2446,2.1404,1.0689,3.8446,-0.4426,-15.777,13.435,5.1507
"2000-05-22 06:00:01.416 UTC",1.4446,1.2404,1.9689,3.2446,0.8574,-15.777,13.435,11.151
"2000-05-22 06:00:01.419 UTC",1.0446,0.7404,0.4689,2.8446,-0.9426,-25.777,-2.565,-8.8493
"2000-05-22 06:00:01.424 UTC",0.9446,2.0404,-0.2311,3.4446,-1.1426,-5.7771,5.435,-2.8493
"2000-05-22 06:00:01.427 UTC",1.7446,-0.4596,1.6689,2.8446,-1.0426,-21.777,-18.565,-22.849
"2000-05-22 06:00:01.432 UTC",2.3446,-1.9596,2.6689,1.7446,0.2574,-1.7771,-4.565,-14.849
"2000-05-22 06:00:01.435 UTC",3.4446,-3.2596,3.1689,1.8446,0.5574,-11.777,-24.565,-46.849
"2000-05-22 06:00:01.440 UTC",3.5446,-3.2596,2.7689,2.6446,0.5574,-1.7771,-28.565,-40.849
"2000-05-22 06:00:01.444 UTC",4.1446,-3.5596,2.7689,3.3446,2.4574,2.2229,-30.565,-42.849
"2000-05-22 06:00:01.447 UTC",3.9446,-6.0596,1.5689,3.9446,3.7574,-11.777,-34.565,-48.849
"2000-05-22 06:00:01.452 UTC",4.4446,-5.4596,2.6689,6.6446,4.9574,8.2229,-26.565,-48.849
"2000-05-22 06:00:01.455 UTC",4.0446,-6.3596,2.7689,2.6446,2.9574,6.2229,-14.565,-28.849
"2000-05-22 06:00:01.460 UTC",3.6446,-4.8596,4.9689,3.4446,1.9574,4.2229,-24.565,-30.849
"2000-05-22 06:00:01.463 UTC",3.7446,-4.0596,5.7689,4.5446,1.7574,8.2229,-16.565,-18.849
"2000-05-22 06:00:01.468 UTC",5.3446,-4.3596,5.9689,5.2446,1.5574,-9.7771,-22.565,-30.849
"2000-05-22 06:00:01.472 UTC",3.4446,-5.0596,5.2689,5.5446,4.0574,-1.7771,-28.565,-30.849
"2000-05-22 06:00:01.475 UTC",3.9446,-2.6596,6.2689,5.3446,5.1574,12.223,-14.565,-22.849
"2000-05-22 06:00:01.480 UTC",2.7446,-3.9596,5.0689,5.4446,5.1574,0.2229,-24.565,-34.849
"2000-05-22 06:00:01.483 UTC",2.2446,-6.7596,4.5689,3.6446,5.7574,-1.7771,-20.565,-28.849
"2000-05-22 06:00:01.488 UTC",3.6446,-6.5596,2.4689,2.8446,5.1574,-7.7771,-24.565,-42.849
"2000-05-22 06:00:01.491 UTC",2.8446,-6.4596,1.5689,5.2446,5.5574,-5.7771,-18.565,-36.849
"2000-05-22 06:00:01.496 UTC",1.5446,-6.2596,1.8689,6.6446,4.8574,-3.7771,-20.565,-28.849
"2000-05-22 06:00:01.500 UTC",0.9446,-6.0596,1.9689,5.1446,3.4574,-9.7771,-22.565,-6.8493
"2000-05-22 06:00:01.503 UTC",1.6446,-2.5596,2.9689,5.1446,3.6574,0.2229,-14.565,-20.849
"2000-05-22 06:00:01.508 UTC",0.9446,-2.3596,1.5689,4.9446,2.6574,10.223,5.435,-6.8493
"2000-05-22 06:00:01.511 UTC",-1.0554,-2.8596,2.1689,5.6446,1.8574,-5.7771,-2.565,-8.8493
"2000-05-22 06:00:01.516 UTC",0.1446,-2.2596,3.5689,6.9446,3.6574,32.223,-4.565,-0.8493
"2000-05-22 06:00:01.519 UTC",0.0446,-6.1596,5.5689,7.0446,5.6574,36.223,-38.565,-16.849
"2000-05-22 06:00:01.524 UTC",-2.6554,-9.5596,7.1689,7.4446,9.0574,60.223,-38.565,-4.8493
"2000-05-22 06:00:01.527 UTC",-5.3554,-12.16,6.1689,10.745,9.7574,72.223,-8.565,37.151
"2000-05-22 06:00:01.531 UTC",-6.3554,-10.86,4.0689,15.645,6.9574,56.223,25.435,59.151
"2000-05-22 06:00:01.536 UTC",-11.955,-4.9596,-1.6311,16.945,-2.0426,8.2229,165.44,211.15
"2000-05-22 06:00:01.539 UTC",-18.755,6.5404,-12.131,20.145,-16.143,-121.78,315.44,367.15
"2000-05-22 06:00:01.544 UTC",-27.655,28.34,-28.631,21.845,-35.143,-277.78,499.43,521.15
"2000-05-22 06:00:01.547 UTC",-35.855,52.04,-45.631,20.745,-56.043,-459.78,641.43,661.15
"2000-05-22 06:00:01.552 UTC",-40.955,69.84,-55.131,18.145,-71.443,-631.78,747.43,767.15
"2000-05-22 06:00:01.555 UTC",-46.455,85.24,-65.531,13.645,-87.343,-727.78,831.43,793.15
"2000-05-22 06:00:01.559 UTC",-40.255,100.04,-65.431,3.0446,-89.043,-627.78,723.43,541.15
"2000-05-22 06:00:01.564 UTC",-16.455,95.94,-48.831,-11.755,-67.743,-379.78,485.43,177.15
"2000-05-22 06:00:01.567 UTC",13.545,79.44,-25.731,-24.955,-40.043,-165.78,147.44,-124.85
"2000-05-22 06:00:01.572 UTC",29.645,53.34,-3.7311,-28.455,-14.543,22.223,-124.56,-336.85
"2000-05-22 06:00:01.575 UTC",36.245,23.54,10.369,-24.655,4.6574,138.22,-258.56,-382.85
"2000-05-22 06:00:01.580 UTC",33.945,0.3404,17.269,-11.855,17.857,180.22,-286.56,-324.85
"2000-05-22 06:00:01.583 UTC",22.845,-18.36,18.769,0.0446,25.657,204.22,-244.56,-230.85
"2000-05-22 06:00:01.588 UTC",15.645,-26.66,18.969,7.6446,27.857,178.22,-238.56,-196.85
"2000-05-22 06:00:01.592 UTC",11.545,-30.06,19.169,9.8446,28.857,182.22,-212.56,-172.85
"2000-05-22 06:00:01.595 UTC",7.5446,-31.56,16.869,8.5446,26.557,156.22,-218.56,-166.85
"2000-05-22 06:00:01.600 UTC",8.5446,-31.06,17.569,9.3446,25.857,150.22,-204.56,-148.85
"2000-05-22 06:00:01.603 UTC",7.1446,-30.36,16.769,8.9446,25.557,156.22,-188.56,-124.85
"2000-05-22 06:00:01.608 UTC",6.6446,-28.86,16.569,6.9446,23.857,134.22,-184.56,-134.85
"2000-05-22 06:00:01.611 UTC",6.8446,-27.06,16.369,7.0446,23.357,138.22,-174.56,-124.85
"2000-05-22 06:00:01.616 UTC",6.8446,-26.96,15.569,7.4446,22.257,116.22,-158.56,-118.85
"2000-05-22 06:00:01.620 UTC",5.7446,-26.36,15.269,9.2446,20.957,116.22,-156.56,-108.85
"2000-05-22 06:00:01.623 UTC",5.8446,-25.56,14.369,12.545,19.557,108.22,-154.56,-104.85
"2000-05-22 06:00:01.628 UTC",5.8446,-23.26,13.969,12.745,16.957,114.22,-118.56,-64.849
"2000-05-22 06:00:01.631 UTC",4.9446,-20.96,15.269,12.545,15.857,102.22,-120.56,-88.849
"2000-05-22 06:00:01.636 UTC",2.0446,-22.46,15.169,14.145,16.057,92.223,-112.56,-84.849
"2000-05-22 06:00:01.639 UTC",1.5446,-19.66,14.169,12.845,15.557,96.223,-92.565,-70.849
"2000-05-22 06:00:01.644 UTC",1.8446,-17.86,12.569,10.445,11.857,82.223,-84.565,-54.849
"2000-05-22 06:00:01.648 UTC",2.7446,-15.96,11.869,10.345,10.157,60.223,-90.565,-62.849
"2000-05-22 06:00:01.651 UTC",3.1446,-15.36,10.469,8.4446,9.7574,68.223,-76.565,-56.849
"2000-05-22 06:00:01.656 UTC",3.1446,-13.86,9.7689,7.8446,8.2574,58.223,-70.565,-46.849
"2000-05-22 06:00:01.659 UTC",1.6446,-12.66,11.269,8.8446,9.7574,78.223,-50.565,-38.849
"2000-05-22 06:00:01.664 UTC",0.5446,-13.16,9.8689,7.6446,7.6574,58.223,-42.565,-28.849
"2000-05-22 06:00:01.667 UTC",3.1446,-12.26,9.3689,7.9446,6.5574,48.223,-54.565,-40.849
"2000-05-22 06:00:01.672 UTC",1.4446,-10.66,9.4689,8.1446,8.0574,54.223,-46.565,-38.849
"2000-05-22 06:00:01.675 UTC",0.4446,-10.76,7.8689,7.8446,7.0574,44.223,-32.565,-20.849
"2000-05-22 06:00:01.679 UTC",0.9446,-7.7596,8.8689,10.345,6.3574,38.223,-38.565,-36.849
"2000-05-22 06:00:01.684 UTC",0.5446,-7.3596,9.9689,7.2446,6.6574,42.223,-24.565,-8.8493
"2000-05-22 06:00:01.687 UTC",0.1446,-4.8596,6.5689,7.0446,5.4574,30.223,-18.565,-2.8493
"2000-05-22 06:00:01.692 UTC",0.8446,-3.9596,5.1689,8.0446,4.8574,28.223,-16.565,-14.849
"2000-05-22 06:00:01.695 UTC",3.4446,-5.1596,6.3689,8.7446,6.0574,42.223,-10.565,-16.849
"2000-05-22 06:00:01.700 UTC",1.0446,-5.1596,6.0689,7.4446,5.0574,18.223,-24.565,-16.849
"2000-05-22 06:00:01.703 UTC",-0.5554,-3.6596,7.3689,12.145,7.0574,32.223,-10.565,-4.8493
"2000-05-22 06:00:01.707 UTC",2.4446,-2.0596,4.1689,12.645,7.3574,32.223,1.435,-0.8493
"2000-05-22 06:00:01.712 UTC",7.6446,2.0404,0.6689,10.845,8.3574,34.223,9.435,7.1507
"2000-05-22 06:00:01.715 UTC",17.345,9.3404,-3.2311,11.145,8.4574,14.223,-6.565,-10.849
"2000-05-22 06:00:01.720 UTC",17.845,12.14,-9.6311,9.8446,3.7574,28.223,17.435,15.151
"2000-05-22 06:00:01.723 UTC",12.745,9.3404,-13.131,7.3446,-4.3426,6.2229,5.435,13.151
"2000-05-22 06:00:01.728 UTC",-2.4554,-2.3596,-5.0311,5.9446,-10.143,0.2229,3.435,9.1507
"2000-05-22 06:00:01.731 UTC",-13.855,-11.56,6.2689,4.1446,-8.5426,24.223,21.435,21.151
"2000-05-22 06:00:01.735 UTC",-10.955,-10.86,6.9689,1.1446,-5.3426,14.223,19.435,27.151
"2000-05-22 06:00:01.740 UTC",-1.7554,-3.4596,5.3689,2.4446,-1.2426,6.2229,13.435,17.151
"2000-05-22 06:00:01.743 UTC",-0.2554,0.3404,4.8689,3.7446,-1.0426,8.2229,35.435,53.151
"2000-05-22 06:00:01.748 UTC",-0.0554,1.8404,5.1689,3.0446,-1.3426,-11.777,19.435,35.151
"2000-05-22 06:00:01.751 UTC",-0.7554,1.0404,5.6689,2.7446,-1.8426,-11.777,25.435,29.151
"2000-05-22 06:00:01.756 UTC",-1.9554,0.6404,3.6689,2.3446,-3.2426,-13.777,31.435,37.151
"2000-05-22 06:00:01.759 UTC",-3.1554,-1.0596,1.4689,2.2446,-4.9426,-23.777,31.435,27.151
"2000-05-22 06:00:01.764 UTC",-3.0554,-0.2596,1.5689,3.6446,-3.8426,-13.777,39.435,35.151
"2000-05-22 06:00:01.768 UTC",-1.3554,1.7404,2.1689,5.9446,-2.8426,0.2229,67.435,57.151
"2000-05-22 06:00:01.771 UTC",-0.5554,3.6404,1.7689,6.1446,-3.5426,-17.777,53.435,49.151
"2000-05-22 06:00:01.776 UTC",-1.5554,4.1404,0.9689,8.5446,-1.1426,-27.777,43.435,37.151
"2000-05-22 06:00:01.779 UTC",-1.9554,2.6404,-2.1311,6.3446,-1.9426,-39.777,39.435,31.151
"2000-05-22 06:00:01.784 UTC",-0.5554,2.5404,-0.3311,6.8446,-2.1426,-27.777,35.435,33.151
"2000-05-22 06:00:01.787 UTC",-0.9554,0.9404,1.7689,10.245,-1.0426,6.2229,77.435,63.151
"2000-05-22 06:00:01.792 UTC",-0.0554,3.4404,1.0689,9.0446,-2.1426,-15.777,59.435,57.151
"2000-05-22 06:00:01.796 UTC",-0.6554,4.5404,-0.8311,7.3446,-2.5426,-29.777,49.435,41.151
"2000-05-22 06:00:01.799 UTC",-1.9554,2.2404,-1.2311,7.1446,-2.0426,-23.777,53.435,41.151
"2000-05-22 06:00:01.804 UTC",-2.6554,1.0404,-1.9311,6.2446,-2.6426,-19.777,69.435,55.151
"2000-05-22 06:00:01.807 UTC",-2.4554,2.6404,-3.1311,6.3446,-3.8426,-41.777,37.435,25.151
"2000-05-22 06:00:01.812 UTC",-2.1554,3.7404,-0.4311,7.5446,-1.4426,-15.777,55.435,35.151
"2000-05-22 06:00:01.815 UTC",-2.3554,0.9404,0.8689,5.8446,-2.1426,-21.777,55.435,55.151
"2000-05-22 06:00:01.820 UTC",-0.9554,2.3404,0.6689,7.4446,-2.5426,-21.777,43.435,61.151
"2000-05-22 06:00:01.824 UTC",-2.1554,2.1404,1.9689,9.1446,-0.4426,-25.777,29.435,39.151
"2000-05-22 06:00:01.827 UTC",-3.1554,-0.2596,1.9689,7.1446,2.2574,-13.777,39.435,45.151
"2000-05-22 06:00:01.832 UTC",-3.1554,-1.3596,1.5689,7.5446,3.7574,-11.777,15.435,17.151
"2000-05-22 06:00:01.835 UTC",-2.4554,-2.3596,3.2689,8.5446,6.3574,14.223,33.435,37.151
"2000-05-22 06:00:01.840 UTC",-2.7554,-2.8596,3.2689,9.0446,6.2574,26.223,23.435,37.151
"2000-05-22 06:00:01.843 UTC",-0.2554,-4.8596,4.3689,8.4446,5.1574,8.2229,-12.565,-6.8493
"2000-05-22 06:00:01.848 UTC",-0.4554,-8.3596,5.3689,8.6446,5.9574,28.223,-6.565,19.151
"2000-05-22 06:00:01.851 UTC",1.7446,-7.3596,6.9689,6.3446,5.6574,12.223,-36.565,-16.849
"2000-05-22 06:00:01.855 UTC",0.6446,-6.7596,7.6689,3.9446,7.1574,40.223,-28.565,-12.849
"2000-05-22 06:00:01.860 UTC",1.8446,-5.7596,10.969,4.7446,8.1574,34.223,-42.565,-62.849
"2000-05-22 06:00:01.863 UTC",0.4446,-9.1596,9.7689,5.0446,10.857,68.223,-12.565,-36.849
"2000-05-22 06:00:01.868 UTC",3.6446,-9.4596,7.9689,4.2446,9.2574,26.223,-54.565,-58.849
"2000-05-22 06:00:01.871 UTC",3.5446,-10.36,9.1689,3.4446,9.0574,12.223,-70.565,-62.849
"2000-05-22 06:00:01.876 UTC",3.5446,-8.2596,10.869,3.0446,10.557,48.223,-48.565,-44.849
"2000-05-22 06:00:01.879 UTC",4.5446,-7.7596,11.969,4.0446,11.457,40.223,-68.565,-70.849
"2000-05-22 06:00:01.883 UTC",4.0446,-7.6596,13.469,4.3446,12.257,70.223,-40.565,-50.849
"2000-05-22 06:00:01.888 UTC",5.9446,-8.5596,10.669,4.0446,11.857,54.223,-48.565,-72.849
"2000-05-22 06:00:01.891 UTC",5.7446,-9.1596,8.2689,3.2446,9.2574,40.223,-72.565,-88.849
"2000-05-22 06:00:01.896 UTC",3.8446,-8.1596,9.0689,4.9446,9.1574,46.223,-48.565,-66.849
"2000-05-22 06:00:01.899 UTC",3.3446,-6.7596,8.6689,4.1446,10.057,56.223,-34.565,-42.849
"2000-05-22 06:00:01.904 UTC",5.7446,-5.3596,8.8689,4.0446,8.7574,34.223,-40.565,-58.849
"2000-05-22 06:00:01.907 UTC",4.8446,-6.0596,7.9689,3.6446,8.5574,38.223,-40.565,-54.849
"2000-05-22 06:00:01.911 UTC",3.6446,-4.7596,7.9689,3.5446,7.3574,26.223,-38.565,-42.849
"2000-05-22 06:00:01.916 UTC",1.3446,-5.1596,5.9689,4.8446,7.6574,20.223,-40.565,-52.849
"2000-05-22 06:00:01.919 UTC",1.3446,-5.3596,5.2689,5.9446,7.4574,14.223,-44.565,-54.849
"2000-05-22 06:00:01.924 UTC",-0.4554,-5.4596,5.2689,7.2446,8.8574,20.223,-32.565,-52.849
"2000-05-22 06:00:01.927 UTC",-0.8554,-6.3596,4.1689,4.5446,7.8574,24.223,-22.565,-40.849
"2000-05-22 06:00:01.932 UTC",-0.0554,-6.1596,6.9689,5.7446,7.0574,32.223,-14.565,-14.849
"2000-05-22 06:00:01.935 UTC",-0.4554,-5.0596,7.9689,7.1446,6.7574,14.223,-20.565,-12.849
"2000-05-22 06:00:01.940 UTC",-0.6554,-5.5596,8.0689,7.6446,8.1574,30.223,-10.565,-12.849
"2000-05-22 06:00:01.944 UTC",-1.4554,-7.0596,6.1689,6.2446,7.5574,14.223,-20.565,-22.849
"2000-05-22 06:00:01.947 UTC",-1.9554,-6.3596,6.2689,6.7446,7.3574,12.223,-18.565,-20.849
"2000-05-22 06:00:01.952 UTC",-1.0554,-3.6596,7.3689,8.9446,7.6574,14.223,-8.565,-12.849
"2000-05-22 06:00:01.955 UTC",-1.9554,-4.9596,4.4689,9.9446,6.3574,6.2229,-14.565,-20.849
"2000-05-22 06:00:01.960 UTC",-5.7554,-7.3596,5.2689,10.045,5.3574,2.2229,-12.565,-14.849
"2000-05-22 06:00:01.963 UTC",-7.2554,-5.3596,4.2689,9.7446,3.6574,-5.7771,-14.565,-16.849
"2000-05-22 06:00:01.968 UTC",-7.7554,-3.9596,4.8689,9.3446,3.6574,2.2229,-12.565,-12.849
"2000-05-22 06:00:01.972 UTC",-8.7554,-3.5596,5.7689,9.7446,3.7574,2.2229,-12.565,-34.849
"2000-05-22 06:00:01.975 UTC",-12.655,-7.4596,4.1689,6.7446,3.1574,12.223,-2.565,-10.849
"2000-05-22 06:00:01.980 UTC",-10.855,-5.7596,2.2689,5.7446,1.7574,2.2229,-8.565,-20.849
"2000-05-22 06:00:01.983 UTC",-10.355,-5.4596,3.8689,7.4446,1.9574,4.2229,-6.565,-8.8493
"2000-05-22 06:00:01.988 UTC",-7.2554,-1.8596,3.4689,8.6446,4.0574,18.223,3.435,1.1507
"2000-05-22 06:00:01.991 UTC",-6.8554,-1.1596,2.8689,6.2446,3.0574,2.2229,-10.565,-20.849
"2000-05-22 06:00:01.996 UTC",-6.7554,-3.0596,3.5689,5.8446,2.9574,12.223,3.435,-8.8493
"2000-05-22 06:00:02.000 UTC",-6.6554,-2.8596,3.5689,4.8446,3.3574,16.223,-8.565,-26.849
"2000-05-22 06:00:02.003 UTC",-5.0554,-2.5596,4.7689,4.6446,2.3574,0.2229,7.435,-12.849
"2000-05-22 06:00:02.008 UTC",-4.6554,-3.1596,4.7689,6.8446,4.8574,18.223,-0.565,1.1507
"2000-05-22 06:00:02.011 UTC",-4.8554,-3.7596,3.5689,3.4446,3.1574,-15.777,-14.565,-24.849
"2000-05-22 06:00:02.016 UTC",-6.0554,-4.6596,6.6689,3.4446,4.5574,4.2229,-4.565,-10.849
"2000-05-22 06:00:02.019 UTC",-7.3554,-4.9596,4.7689,4.1446,3.8574,-7.7771,-4.565,-4.8493
"2000-05-22 06:00:02.024 UTC",-3.6554,-1.4596,4.5689,7.1446,4.7574,8.2229,-8.565,-6.8493
"2000-05-22 06:00:02.027 UTC",-5.3554,-4.8596,2.6689,5.8446,4.5574,8.2229,7.435,-2.8493
"2000-05-22 06:00:02.031 UTC",-5.5554,-3.6596,4.0689,6.0446,4.3574,6.2229,-2.565,-16.849
"2000-05-22 06:00:02.036 UTC",-3.6554,-2.6596,4.1689,8.0446,5.3574,20.223,11.435,-2.8493
"2000-05-22 06:00:02.039 UTC",-5.9554,-3.1596,4.3689,6.6446,5.0574,16.223,5.435,11.151
"2000-05-22 06:00:02.044 UTC",-5.0554,-1.6596,2.8689,8.0446,4.6574,28.223,9.435,7.1507
"2000-05-22 06:00:02.047 UTC",-6.4554,-1.5596,0.8689,9.2446,4.4574,22.223,17.435,19.151
"2000-05-22 06:00:02.052 UTC",-7.1554,-0.5596,0.8689,10.945,3.3574,22.223,27.435,27.151
"2000-05-22 06:00:02.055 UTC",-8.4554,0.1404,0.1689,10.045,2.9574,12.223,27.435,35.151
"2000-05-22 06:00:02.059 UTC",-8.4554,0.8404,-0.1311,8.1446,2.3574,28.223,33.435,35.151
"2000-05-22 06:00:02.064 UTC",-6.7554,1.4404,-0.6311,7.1446,0.1574,16.223,27.435,29.151
"2000-05-22 06:00:02.067 UTC",-5.4554,2.6404,-0.9311,9.4446,0.8574,26.223,49.435,31.151
"2000-05-22 06:00:02.072 UTC",-5.2554,2.0404,-0.9311,10.045,-1.0426,18.223,35.435,11.151
"2000-05-22 06:00:02.075 UTC",-5.6554,0.9404,-0.4311,10.245,-1.8426,22.223,55.435,39.151
"2000-05-22 06:00:02.080 UTC",-3.8554,1.2404,1.2689,10.245,-3.2426,-23.777,15.435,19.151
"2000-05-22 06:00:02.083 UTC",-7.0554,-2.9596,3.3689,9.2446,1.0574,-11.777,39.435,43.151
"2000-05-22 06:00:02.088 UTC",-5.1554,-1.4596,4.0689,7.3446,2.6574,-37.777,-2.565,-0.8493
"2000-05-22 06:00:02.092 UTC",-4.0554,-2.0596,4.1689,4.9446,3.8574,-25.777,13.435,3.1507
"2000-05-22 06:00:02.095 UTC",-1.0554,-1.3596,4.6689,5.2446,3.1574,-25.777,9.435,-2.8493
"2000-05-22 06:00:02.100 UTC",-0.1554,-0.2596,4.4689,3.3446,1.4574,-39.777,-10.565,-22.849
"2000-05-22 06:00:02.103 UTC",2.0446,0.3404,5.2689,-0.3554,2.4574,-33.777,-8.565,-26.849
"2000-05-22 06:00:02.108 UTC",2.5446,-0.0596,5.7689,0.6446,4.4574,-25.777,-20.565,-40.849
"2000-05-22 06:00:02.111 UTC",1.7446,-3.3596,4.6689,3.0446,5.6574,-9.7771,-14.565,-34.849
"2000-05-22 06:00:02.116 UTC",2.3446,-2.5596,5.0689,3.1446,5.8574,-19.777,-28.565,-44.849
"2000-05-22 06:00:02.120 UTC",2.3446,-3.4596,5.8689,3.4446,5.6574,-3.7771,-24.565,-28.849
"2000-05-22 06:00:02.123 UTC",3.2446,-3.6596,7.3689,2.5446,5.6574,-1.7771,-26.565,-46.849
"2000-05-22 06:00:02.128 UTC",3.7446,-5.1596,7.7689,1.2446,4.4574,-1.7771,-38.565,-56.849
"2000-05-22 06:00:02.131 UTC",3.8446,-6.1596,7.2689,1.6446,5.6574,24.223,-0.565,-22.849
"2000-05-22 06:00:02.136 UTC",6.4446,-4.4596,5.9689,-1.3554,3.5574,2.2229,-28.565,-34.849
"2000-05-22 06:00:02.139 UTC",5.6446,-3.0596,6.7689,0.3446,5.2574,10.223,-18.565,-44.849
"2000-05-22 06:00:02.144 UTC",3.5446,-6.5596,4.1689,-1.3554,3.8574,0.2229,-28.565,-50.849
"2000-05-22 06:00:02.148 UTC",4.0446,-2.8596,6.5689,0.2446,2.9574,-1.7771,-10.565,-38.849
"2000-05-22 06:00:02.151 UTC",3.7446,-0.4596,6.3689,3.8446,4.5574,-5.7771,-24.565,-34.849
"2000-05-22 06:00:02.156 UTC",3.8446,-2.9596,4.3689,6.5446,6.8574,-11.777,-20.565,-42.849
"2000-05-22 06:00:02.159 UTC",5.4446,-3.5596,2.2689,6.4446,6.3574,-21.777,-32.565,-54.849
"2000-05-22 06:00:02.164 UTC",10.445,1.0404,-0.7311,6.1446,8.8574,-17.777,-22.565,-34.849
"2000-05-22 06:00:02.167 UTC",18.045,8.8404,-5.1311,6.8446,7.9574,-5.7771,-12.565,-22.849
"2000-05-22 06:00:02.172 UTC",17.445,11.14,-10.831,7.3446,3.1574,0.2229,-14.565,-36.849
"2000-05-22 06:00:02.175 UTC",8.9446,5.1404,-10.131,6.5446,-3.0426,12.223,-2.565,-20.849
"2000-05-22 06:00:02.179 UTC",-5.4554,-7.9596,1.2689,3.6446,-6.3426,10.223,-0.565,-10.849
"2000-05-22 06:00:02.184 UTC",-12.655,-15.26,8.7689,1.9446,-4.0426,-7.7771,-22.565,-12.849
"2000-05-22 06:00:02.187 UTC",-7.3554,-9.4596,9.9689,2.9446,1.1574,10.223,3.435,1.1507
"2000-05-22 06:00:02.192 UTC",-0.8554,-4.2596,7.4689,1.8446,4.4574,18.223,-2.565,-6.8493
"2000-05-22 06:00:02.195 UTC",0.6446,-7.5596,6.8689,3.5446,7.7574,20.223,-30.565,-30.849
"2000-05-22 06:00:02.200 UTC",-1.8554,-12.96,3.7689,3.0446,9.5574,30.223,-44.565,-18.849
"2000-05-22 06:00:02.203 UTC",-1.5554,-13.06,6.7689,7.8446,12.157,70.223,-44.565,-8.8493
"2000-05-22 06:00:02.207 UTC",-2.7554,-13.26,5.3689,9.8446,12.157,94.223,5.435,23.151
"2000-05-22 06:00:02.212 UTC",-6.2554,-9.1596,0.9689,12.845,5.1574,46.223,67.435,91.151
"2000-05-22 06:00:02.215 UTC",-12.155,-0.6596,-7.9311,14.845,-6.1426,-47.777,193.44,255.15
"2000-05-22 06:00:02.220 UTC",-23.155,14.14,-20.831,17.445,-24.243,-213.78,363.44,425.15
"2000-05-22 06:00:02.223 UTC",-31.055,38.24,-32.631,20.945,-45.143,-361.78,555.43,601.15
"2000-05-22 06:00:02.228 UTC",-37.955,58.44,-47.331,15.445,-64.743,-581.78,651.43,695.15
"2000-05-22 06:00:02.231 UTC",-42.655,79.14,-59.131,12.845,-81.843,-723.78,765.43,781.15
"2000-05-22 06:00:02.235 UTC",-43.455,95.94,-68.831,4.6446,-92.443,-731.78,765.43,663.15
"2000-05-22 06:00:02.240 UTC",-26.655,100.14,-60.631,-8.3554,-80.943,-557.78,567.43,355.15
"2000-05-22 06:00:02.243 UTC",2.2446,89.44,-37.331,-19.655,-56.043,-339.78,259.44,5.1507
"2000-05-22 06:00:02.248 UTC",20.645,61.64,-15.231,-24.155,-27.543,-95.777,-4.565,-230.85
"2000-05-22 06:00:02.251 UTC",34.445,34.14,3.0689,-24.655,-4.2426,74.223,-202.56,-360.85
"2000-05-22 06:00:02.256 UTC",36.845,9.2404,13.969,-17.255,12.957,172.22,-254.56,-338.85
"2000-05-22 06:00:02.259 UTC",28.745,-13.36,19.469,-5.9554,22.957,204.22,-240.56,-270.85
"2000-05-22 06:00:02.264 UTC",16.945,-25.16,19.169,0.1446,25.457,182.22,-226.56,-206.85
"2000-05-22 06:00:02.268 UTC",11.045,-29.46,18.369,6.1446,26.257,176.22,-222.56,-172.85
"2000-05-22 06:00:02.271 UTC",7.9446,-32.86,17.969,5.1446,26.657,178.22,-198.56,-148.85
"2000-05-22 06:00:02.276 UTC",4.6446,-35.96,15.869,4.1446,24.557,170.22,-184.56,-122.85
"2000-05-22 06:00:02.279 UTC",6.0446,-31.36,16.469,4.2446,23.757,172.22,-182.56,-134.85
"2000-05-22 06:00:02.284 UTC",5.1446,-30.66,16.769,4.3446,24.557,178.22,-150.56,-116.85
"2000-05-22 06:00:02.287 UTC",6.4446,-30.66,14.969,4.7446,21.057,136.22,-170.56,-124.85
"2000-05-22 06:00:02.292 UTC",5.0446,-30.36,12.969,6.1446,20.257,130.22,-154.56,-106.85
"2000-05-22 06:00:02.296 UTC",6.2446,-27.26,13.669,7.4446,18.057,120.22,-148.56,-106.85
"2000-05-22 06:00:02.299 UTC",4.8446,-25.36,14.169,5.2446,18.857,144.22,-110.56,-88.849
"2000-05-22 06:00:02.304 UTC",4.3446,-26.86,14.969,3.9446,16.857,114.22,-130.56,-98.849
"2000-05-22 06:00:02.307 UTC",4.6446,-25.96,12.069,4.1446,15.157,116.22,-106.56,-60.849
"2000-05-22 06:00:02.312 UTC",2.7446,-23.06,9.3689,4.8446,12.157,94.223,-108.56,-72.849
"2000-05-22 06:00:02.315 UTC",3.9446,-20.16,9.4689,5.4446,11.857,86.223,-106.56,-68.849
"2000-05-22 06:00:02.320 UTC",2.0446,-19.66,8.5689,5.6446,12.057,90.223,-68.565,-40.849
"2000-05-22 06:00:02.324 UTC",2.0446,-17.76,8.6689,7.1446,12.057,60.223,-92.565,-66.849
"2000-05-22 06:00:02.327 UTC",0.7446,-17.76,7.9689,5.9446,11.557,76.223,-66.565,-42.849
"2000-05-22 06:00:02.332 UTC",0.5446,-15.56,7.6689,5.3446,10.257,76.223,-62.565,-42.849
"2000-05-22 06:00:02.335 UTC",3.2446,-12.86,7.2689,6.4446,9.8574,98.223,-34.565,-14.849
"2000-05-22 06:00:02.340 UTC",4.0446,-12.76,5.0689,5.6446,7.9574,68.223,-56.565,-40.849
"2000-05-22 06:00:02.343 UTC",2.2446,-13.26,3.9689,5.5446,6.6574,58.223,-50.565,-46.849
"2000-05-22 06:00:02.348 UTC",2.7446,-11.26,1.0689,3.2446,4.7574,44.223,-48.565,-34.849
"2000-05-22 06:00:02.351 UTC",4.2446,-8.2596,1.9689,4.2446,4.1574,52.223,-34.565,-20.849
"2000-05-22 06:00:02.355 UTC",2.5446,-8.1596,2.5689,1.5446,2.0574,48.223,-28.565,-20.849
"2000-05-22 06:00:02.360 UTC",2.7446,-7.8596,1.3689,2.8446,1.6574,48.223,-24.565,-10.849
"2000-05-22 06:00:02.363 UTC",3.7446,-6.0596,1.8689,3.7446,1.2574,34.223,-32.565,-28.849
"2000-05-22 06:00:02.368 UTC",3.3446,-4.4596,0.5689,1.5446,2.2574,36.223,-28.565,-20.849
"2000-05-22 06:00:02.371 UTC",3.4446,-1.3596,1.7689,3.4446,2.3574,34.223,-14.565,1.1507
"2000-05-22 06:00:02.376 UTC",1.1446,-1.8596,2.4689,1.3446,2.2574,30.223,-28.565,-10.849
"2000-05-22 06:00:02.379 UTC",0.6446,-3.4596,1.7689,1.4446,1.6574,32.223,-6.565,-0.8493
"2000-05-22 06:00:02.383 UTC",2.1446,-2.4596,0.4689,1.0446,-0.4426,32.223,-14.565,-14.849
"2000-05-22 06:00:02.388 UTC",3.7446,-0.3596,-1.1311,2.1446,-2.3426,24.223,-14.565,-10.849
"2000-05-22 06:00:02.391 UTC",0.2446,0.2404,-1.9311,2.9446,-2.5426,34.223,1.435,17.151
"2000-05-22 06:00:02.396 UTC",-0.9554,0.4404,-2.4311,3.9446,-1.8426,26.223,7.435,15.151
"2000-05-22 06:00:02.399 UTC",1.8446,-1.0596,-1.9311,1.8446,-3.0426,-1.7771,-10.565,9.1507
"2000-05-22 06:00:02.404 UTC",0.8446,0.0404,-0.9311,0.8446,-2.7426,22.223,7.435,13.151
"2000-05-22 06:00:02.407 UTC",-0.9554,-2.4596,-2.0311,-0.9554,-4.6426,6.2229,15.435,31.151
"2000-05-22 06:00:02.411 UTC",-0.3554,-0.0596,-0.2311,1.6446,-2.7426,12.223,-6.565,-22.849
"2000-05-22 06:00:02.416 UTC",-3.5554,-2.3596,-1.6311,0.8446,-3.2426,10.223,21.435,13.151
"2000-05-22 06:00:02.419 UTC",-1.6554,-2.4596,-1.8311,-0.6554,-3.9426,0.2229,7.435,1.1507
"2000-05-22 06:00:02.424 UTC",-2.0554,-3.1596,-1.3311,3.5446,-2.4426,14.223,33.435,19.151
"2000-05-22 06:00:02.427 UTC",-2.8554,-2.0596,-4.5311,5.1446,-3.6426,-5.7771,29.435,27.151
"2000-05-22 06:00:02.432 UTC",-0.8554,1.5404,-2.0311,5.9446,-3.3426,-1.7771,23.435,17.151
"2000-05-22 06:00:02.435 UTC",-1.8554,1.7404,-1.4311,6.1446,-3.9426,-7.7771,27.435,25.151
"2000-05-22 06:00:02.440 UTC",-2.4554,1.9404,-0.5311,6.8446,-4.3426,-19.777,37.435,31.151
"2000-05-22 06:00:02.444 UTC",-2.7554,0.3404,1.2689,7.0446,-4.8426,-19.777,37.435,47.151
"2000-05-22 06:00:02.447 UTC",-2.8554,2.8404,0.4689,4.4446,-5.2426,-29.777,29.435,33.151
"2000-05-22 06:00:02.452 UTC",-4.0554,2.7404,0.3689,4.4446,-4.6426,-15.777,49.435,37.151
"2000-05-22 06:00:02.455 UTC",-4.0554,1.3404,-2.2311,1.9446,-5.8426,-31.777,29.435,33.151
"2000-05-22 06:00:02.460 UTC",-3.9554,1.0404,-2.4311,1.4446,-5.7426,-21.777,39.435,15.151
"2000-05-22 06:00:02.463 UTC",-3.2554,1.8404,-3.2311,2.9446,-5.4426,-29.777,35.435,25.151
"2000-05-22 06:00:02.468 UTC",-1.0554,3.0404,-5.4311,4.5446,-4.3426,-35.777,33.435,27.151
"2000-05-22 06:00:02.472 UTC",-3.0554,3.9404,-4.8311,4.8446,-2.2426,-25.777,39.435,39.151
"2000-05-22 06:00:02.475 UTC",-3.5554,4.9404,-3.1311,4.9446,-2.0426,-25.777,49.435,33.151
"2000-05-22 06:00:02.480 UTC",-5.8554,3.5404,-2.8311,3.1446,-2.1426,-37.777,29.435,17.151
"2000-05-22 06:00:02.483 UTC",-5.0554,3.6404,-3.7311,4.1446,-1.4426,-35.777,45.435,25.151
"2000-05-22 06:00:02.488 UTC",-5.5554,2.6404,-2.9311,3.1446,-0.8426,-37.777,29.435,39.151
"2000-05-22 06:00:02.491 UTC",-4.6554,2.4404,-3.1311,3.8446,-3.1426,-47.777,27.435,39.151
"2000-05-22 06:00:02.496 UTC",-2.6554,2.6404,-4.1311,6.2446,-2.6426,-17.777,37.435,33.151
"2000-05-22 06:00:02.500 UTC",-2.5554,1.4404,-2.3311,5.0446,-2.2426,-13.777,33.435,37.151
"2000-05-22 06:00:02.503 UTC",-2.8554,1.7404,-2.4311,4.8446,-0.8426,-5.7771,25.435,25.151
"2000-05-22 06:00:02.508 UTC",-4.3554,0.6404,-3.5311,3.7446,0.4574,-9.7771,19.435,29.151
"2000-05-22 06:00:02.511 UTC",-2.6554,0.0404,-4.0311,2.2446,0.1574,-23.777,-2.565,13.151
"2000-05-22 06:00:02.516 UTC",-3.2554,0.0404,-1.2311,1.7446,1.6574,-5.7771,7.435,31.151
"2000-05-22 06:00:02.519 UTC",-0.7554,-1.6596,1.0689,1.4446,4.0574,10.223,5.435,11.151
"2000-05-22 06:00:02.524 UTC",-0.8554,-3.6596,2.5689,4.0446,7.1574,28.223,-2.565,15.151
"2000-05-22 06:00:02.527 UTC",-2.0554,-3.9596,3.3689,4.0446,8.7574,24.223,-20.565,-4.8493
"2000-05-22 06:00:02.531 UTC",-2.1554,-5.8596,2.2689,5.4446,8.1574,20.223,-30.565,-24.849
"2000-05-22 06:00:02.536 UTC",-0.0554,-6.1596,4.4689,6.0446,9.0574,28.223,-28.565,-34.849
"2000-05-22 06:00:02.539 UTC",2.2446,-7.6596,6.4689,5.6446,10.557,26.223,-52.565,-46.849
"2000-05-22 06:00:02.544 UTC",2.7446,-7.2596,5.3689,4.2446,11.457,34.223,-44.565,-38.849
"2000-05-22 06:00:02.547 UTC",3.7446,-6.6596,4.6689,4.2446,10.157,26.223,-58.565,-58.849
"2000-05-22 06:00:02.552 UTC",2.1446,-8.0596,3.9689,0.9446,9.2574,40.223,-52.565,-50.849
"2000-05-22 06:00:02.555 UTC",4.4446,-8.9596,4.9689,0.4446,8.8574,44.223,-62.565,-68.849
"2000-05-22 06:00:02.559 UTC",3.7446,-8.7596,4.7689,-0.8554,7.3574,18.223,-72.565,-72.849
"2000-05-22 06:00:02.564 UTC",6.4446,-7.2596,6.5689,-0.6554,8.5574,36.223,-70.565,-88.849
"2000-05-22 06:00:02.567 UTC",3.6446,-9.1596,5.4689,-0.7554,7.5574,38.223,-54.565,-80.849
"2000-05-22 06:00:02.572 UTC",4.4446,-6.4596,6.1689,-0.8554,7.1574,36.223,-50.565,-68.849
"2000-05-22 06:00:02.575 UTC",3.8446,-5.9596,6.3689,-0.4554,5.6574,18.223,-66.565,-78.849
"2000-05-22 06:00:02.580 UTC",2.9446,-7.5596,6.5689,0.6446,5.1574,24.223,-58.565,-66.849
"2000-05-22 06:00:02.583 UTC",4.0446,-5.5596,5.0689,1.6446,4.9574,22.223,-50.565,-52.849
"2000-05-22 06:00:02.588 UTC",4.0446,-4.0596,3.6689,2.5446,4.5574,28.223,-30.565,-30.849
"2000-05-22 06:00:02.592 UTC",5.7446,-3.6596,6.0689,3.7446,3.7574,20.223,-58.565,-74.849
"2000-05-22 06:00:02.595 UTC",1.7446,-4.9596,6.4689,4.0446,4.4574,44.223,-10.565,-24.849
"2000-05-22 06:00:02.600 UTC",0.9446,-5.1596,4.7689,3.3446,1.8574,12.223,-38.565,-48.849
"2000-05-22 06:00:02.603 UTC",0.5446,-5.6596,5.5689,5.4446,2.9574,28.223,-26.565,-42.849
"2000-05-22 06:00:02.608 UTC",0.3446,-5.7596,3.8689,6.2446,3.4574,8.2229,-24.565,-28.849
"2000-05-22 06:00:02.611 UTC",3.0446,-4.8596,3.8689,7.9446,6.4574,16.223,-28.565,-34.849
"2000-05-22 06:00:02.616 UTC",4.6446,-2.4596,-0.0311,7.8446,8.6574,-1.7771,-26.565,-32.849
"2000-05-22 06:00:02.620 UTC",13.445,6.4404,-4.6311,9.2446,11.457,-1.7771,-18.565,-30.849
"2000-05-22 06:00:02.623 UTC",15.245,9.9404,-10.731,7.3446,6.9574,-11.777,-24.565,-36.849
"2000-05-22 06:00:02.628 UTC",9.4446,6.5404,-12.831,6.1446,0.6574,2.2229,-16.565,-18.849
"2000-05-22 06:00:02.631 UTC",-4.7554,-4.4596,-4.8311,4.9446,-4.3426,6.2229,-6.565,5.1507
"2000-05-22 06:00:02.636 UTC",-17.655,-14.56,6.6689,1.9446,-4.1426,-21.777,-34.565,-26.849
"2000-05-22 06:00:02.639 UTC",-16.655,-15.36,10.469,-0.1554,0.7574,-3.7771,-26.565,-42.849
"2000-05-22 06:00:02.644 UTC",-11.355,-11.16,8.3689,1.5446,4.2574,-1.7771,-14.565,-34.849
"2000-05-22 06:00:02.648 UTC",-5.7554,-7.8596,6.1689,1.2446,5.5574,10.223,-0.565,-8.8493
"2000-05-22 06:00:02.651 UTC",-4.8554,-6.6596,6.0689,2.8446,4.8574,12.223,-2.565,-0.8493
"2000-05-22 06:00:02.656 UTC",-5.3554,-7.2596,4.1689,0.9446,3.5574,-9.7771,-28.565,-20.849
"2000-05-22 06:00:02.659 UTC",-6.1554,-4.6596,3.7689,0.9446,3.8574,-23.777,-32.565,-34.849
"2000-05-22 06:00:02.664 UTC",-6.2554,-4.7596,3.7689,1.2446,4.7574,-3.7771,-6.565,-4.8493
"2000-05-22 06:00:02.667 UTC",-4.4554,-5.2596,4.5689,2.4446,5.1574,-7.7771,-4.565,1.1507
"2000-05-22 06:00:02.672 UTC",-6.5554,-7.5596,4.9689,2.2446,4.6574,-21.777,-24.565,-8.8493
"2000-05-22 06:00:02.675 UTC",-7.9554,-6.7596,4.4689,1.2446,4.5574,-1.7771,-4.565,-8.8493
"2000-05-22 06:00:02.679 UTC",-5.2554,-5.5596,4.4689,1.2446,3.8574,-9.7771,-24.565,-18.849
"2000-05-22 06:00:02.684 UTC",-4.7554,-6.5596,4.9689,1.9446,4.5574,-1.7771,-20.565,-20.849
"2000-05-22 06:00:02.687 UTC",-3.3554,-7.5596,3.4689,3.7446,4.5574,8.2229,1.435,-6.8493
"2000-05-22 06:00:02.692 UTC",-2.4554,-4.9596,2.3689,2.0446,3.6574,-9.7771,-18.565,-20.849
"2000-05-22 06:00:02.695 UTC",-3.7554,-2.3596,3.1689,2.1446,3.2574,8.2229,7.435,-10.849
"2000-05-22 06:00:02.700 UTC",-4.2554,-4.3596,2.9689,1.2446,3.5574,-15.777,-12.565,-18.849
"2000-05-22 06:00:02.703 UTC",-4.2554,-3.3596,3.8689,3.8446,4.6574,-15.777,-16.565,-14.849
"2000-05-22 06:00:02.707 UTC",-3.7554,-3.1596,2.8689,6.5446,7.9574,10.223,5.435,1.1507
"2000-05-22 06:00:02.712 UTC",-3.5554,-4.5596,2.8689,6.2446,6.9574,-17.777,-22.565,-8.8493
"2000-05-22 06:00:02.715 UTC",-3.2554,-5.8596,4.0689,6.0446,7.5574,4.2229,3.435,3.1507
"2000-05-22 06:00:02.720 UTC",-4.2554,-4.3596,4.9689,4.3446,6.3574,2.2229,7.435,3.1507
"2000-05-22 06:00:02.723 UTC",-4.2554,-1.6596,5.7689,4.3446,6.6574,20.223,3.435,-8.8493
"2000-05-22 06:00:02.728 UTC",-5.2554,-3.0596,2.9689,4.1446,4.3574,20.223,-0.565,-4.8493
"2000-05-22 06:00:02.731 UTC",-5.9554,-4.3596,0.2689,7.0446,1.9574,8.2229,-2.565,-4.8493
"2000-05-22 06:00:02.735 UTC",-7.5554,-3.7596,-0.3311,6.7446,2.1574,24.223,29.435,27.151
"2000-05-22 06:00:02.740 UTC",-8.7554,-3.8596,-0.9311,4.1446,0.2574,12.223,13.435,29.151
"2000-05-22 06:00:02.743 UTC",-9.9554,-2.5596,-1.1311,4.5446,-1.7426,14.223,21.435,31.151
"2000-05-22 06:00:02.748 UTC",-8.4554,0.4404,-2.6311,2.6446,-2.2426,10.223,23.435,19.151
"2000-05-22 06:00:02.751 UTC",-7.1554,0.3404,-1.6311,3.5446,-2.7426,10.223,35.435,33.151
"2000-05-22 06:00:02.756 UTC",-6.7554,0.7404,-1.4311,1.4446,-3.9426,2.2229,37.435,25.151
"2000-05-22 06:00:02.759 UTC",-3.3554,2.8404,-0.8311,0.8446,-3.7426,18.223,45.435,43.151
"2000-05-22 06:00:02.764 UTC",-4.4554,2.3404,-2.7311,0.1446,-5.3426,6.2229,35.435,39.151
"2000-05-22 06:00:02.768 UTC",-2.9554,2.7404,-1.8311,1.4446,-3.3426,-21.777,9.435,13.151
"2000-05-22 06:00:02.771 UTC",-0.9554,0.6404,0.1689,1.0446,-0.9426,-37.777,-2.565,-4.8493
"2000-05-22 06:00:02.776 UTC",0.6446,1.0404,0.8689,0.1446,-1.2426,-43.777,3.435,15.151
"2000-05-22 06:00:02.779 UTC",1.7446,2.4404,0.4689,-3.4554,-2.0426,-41.777,-10.565,-6.8493
"2000-05-22 06:00:02.784 UTC",1.4446,1.7404,0.5689,-1.5554,-1.5426,-39.777,-20.565,-26.849
"2000-05-22 06:00:02.787 UTC",0.0446,1.0404,0.6689,-4.0554,-1.6426,-41.777,-12.565,-26.849
"2000-05-22 06:00:02.792 UTC",1.2446,1.4404,2.2689,-5.6554,-0.5426,-21.777,-0.565,-22.849
"2000-05-22 06:00:02.796 UTC",1.2446,2.0404,1.2689,-6.5554,-0.7426,-29.777,-12.565,-26.849
"2000-05-22 06:00:02.799 UTC",2.7446,2.6404,0.9689,-4.7554,-0.1426,-21.777,-26.565,-36.849
"2000-05-22 06:00:02.804 UTC",5.7446,2.8404,1.9689,-3.8554,0.2574,-29.777,-32.565,-40.849
"2000-05-22 06:00:02.807 UTC",5.7446,-0.5596,1.9689,-3.9554,1.4574,-25.777,-32.565,-34.849
"2000-05-22 06:00:02.812 UTC",4.1446,-3.1596,2.9689,-2.4554,2.1574,-5.7771,-22.565,-26.849
"2000-05-22 06:00:02.815 UTC",7.0446,-1.1596,3.6689,-4.0554,1.9574,-7.7771,-30.565,-42.849
"2000-05-22 06:00:02.820 UTC",5.4446,-1.0596,3.4689,-6.2554,1.8574,-1.7771,-28.565,-40.849
"2000-05-22 06:00:02.824 UTC",4.3446,-3.1596,1.6689,-7.7554,-0.2426,-21.777,-40.565,-52.849
"2000-05-22 06:00:02.827 UTC",4.3446,-0.8596,2.7689,-7.9554,0.0574,-7.7771,-30.565,-50.849
"2000-05-22 06:00:02.832 UTC",4.1446,-0.5596,2.5689,-8.8554,-0.7426,-13.777,-30.565,-34.849
"2000-05-22 06:00:02.835 UTC",6.3446,-0.6596,3.4689,-7.2554,-0.2426,-11.777,-28.565,-36.849
"2000-05-22 06:00:02.840 UTC",4.1446,-0.3596,3.0689,-6.9554,-1.2426,4.2229,-22.565,-20.849
"2000-05-22 06:00:02.843 UTC",6.7446,2.2404,2.6689,-5.6554,-2.1426,-9.7771,-34.565,-26.849
"2000-05-22 06:00:02.848 UTC",4.7446,0.4404,0.6689,-5.7554,-1.0426,0.2229,-20.565,-24.849
"2000-05-22 06:00:02.851 UTC",3.3446,0.1404,0.9689,-5.9554,-0.3426,0.2229,-20.565,-26.849
"2000-05-22 06:00:02.855 UTC",3.7446,-1.6596,1.3689,-6.8554,-0.7426,-17.777,-40.565,-40.849
"2000-05-22 06:00:02.860 UTC",1.9446,-1.9596,1.8689,-5.8554,-1.6426,-11.777,-28.565,-18.849
"2000-05-22 06:00:02.863 UTC",3.5446,-0.6596,2.2689,-3.3554,-1.7426,-7.7771,-20.565,-18.849
"2000-05-22 06:00:02.868 UTC",4.9446,1.8404,2.3689,-2.1554,0.2574,10.223,-2.565,-4.8493
"2000-05-22 06:00:02.871 UTC",4.8446,1.0404,0.5689,-2.2554,-0.9426,4.2229,5.435,15.151
"2000-05-22 06:00:02.876 UTC",2.7446,0.5404,1.9689,-3.5554,-2.1426,-19.777,-32.565,-28.849
"2000-05-22 06:00:02.879 UTC",0.8446,-1.4596,2.6689,-4.6554,-0.3426,0.2229,-36.565,-28.849
"2000-05-22 06:00:02.883 UTC",-0.6554,-5.3596,4.1689,-3.2554,3.9574,20.223,-34.565,-10.849
"2000-05-22 06:00:02.888 UTC",-1.8554,-9.0596,7.2689,-0.1554,8.4574,54.223,-42.565,5.1507
"2000-05-22 06:00:02.891 UTC",-2.9554,-10.66,6.4689,2.3446,9.5574,74.223,-34.565,13.151
"2000-05-22 06:00:02.896 UTC",-4.0554,-10.86,4.7689,2.9446,6.1574,66.223,21.435,49.151
"2000-05-22 06:00:02.899 UTC",-7.6554,-4.5596,-3.0311,2.4446,-4.2426,2.2229,119.43,153.15
"2000-05-22 06:00:02.904 UTC",-14.255,9.0404,-11.531,5.9446,-16.643,-91.777,261.44,315.15
"2000-05-22 06:00:02.907 UTC",-25.155,25.24,-26.431,5.0446,-36.043,-269.78,435.43,471.15
"2000-05-22 06:00:02.911 UTC",-30.255,53.04,-40.331,4.0446,-56.243,-465.78,567.43,599.15
"2000-05-22 06:00:02.916 UTC",-36.155,74.14,-54.631,2.6446,-73.043,-641.78,707.43,735.15
"2000-05-22 06:00:02.919 UTC",-39.555,93.24,-64.531,1.3446,-87.343,-743.78,771.43,735.15
"2000-05-22 06:00:02.924 UTC",-31.955,106.34,-63.531,-10.355,-86.643,-661.78,661.43,507.15
"2000-05-22 06:00:02.927 UTC",-6.8554,101.04,-47.131,-24.655,-68.243,-449.78,395.44,147.15
"2000-05-22 06:00:02.932 UTC",17.245,79.94,-26.231,-33.255,-41.643,-221.78,95.435,-148.85
"2000-05-22 06:00:02.935 UTC",32.745,51.64,-3.5311,-36.755,-14.543,-13.777,-134.56,-336.85
"2000-05-22 06:00:02.940 UTC",39.145,23.34,8.2689,-33.055,5.8574,136.22,-232.56,-374.85
"2000-05-22 06:00:02.944 UTC",36.045,1.5404,14.169,-21.855,16.857,158.22,-284.56,-332.85
"2000-05-22 06:00:02.947 UTC",23.645,-15.56,18.069,-10.755,24.757,184.22,-250.56,-234.85
"2000-05-22 06:00:02.952 UTC",12.845,-25.96,16.869,-6.6554,26.157,158.22,-232.56,-164.85
"2000-05-22 06:00:02.955 UTC",8.6446,-30.66,18.369,-3.6554,27.157,152.22,-210.56,-136.85
"2000-05-22 06:00:02.960 UTC",5.8446,-32.56,17.569,-0.5554,27.557,162.22,-188.56,-124.85
"2000-05-22 06:00:02.963 UTC",4.3446,-31.56,16.169,-3.1554,24.157,148.22,-190.56,-132.85
"2000-05-22 06:00:02.968 UTC",4.6446,-28.06,17.369,-3.4554,24.157,162.22,-192.56,-136.85
"2000-05-22 06:00:02.972 UTC",4.7446,-27.46,14.869,-3.0554,22.157,154.22,-172.56,-100.85
"2000-05-22 06:00:02.975 UTC",4.1446,-26.36,15.269,-1.8554,21.057,136.22,-170.56,-106.85
"2000-05-22 06:00:02.980 UTC",5.8446,-26.16,15.369,0.2446,20.057,136.22,-160.56,-102.85
"2000-05-22 06:00:02.983 UTC",2.9446,-25.86,14.869,1.4446,19.157,132.22,-126.56,-88.849
"2000-05-22 06:00:02.988 UTC",0.2446,-26.06,13.769,-0.6554,16.357,94.223,-150.56,-100.85
"2000-05-22 06:00:02.991 UTC",0.4446,-23.66,13.469,-1.7554,13.957,104.22,-126.56,-74.849
"2000-05-22 06:00:02.996 UTC",0.1446,-22.66,12.369,-1.9554,12.357,104.22,-112.56,-62.849
"2000-05-22 06:00:03.000 UTC",-0.1554,-19.96,11.769,-1.8554,10.857,92.223,-114.56,-50.849
"2000-05-22 06:00:03.003 UTC",2.6446,-15.96,10.269,-2.0554,10.357,86.223,-108.56,-66.849
"2000-05-22 06:00:03.008 UTC",1.5446,-16.16,8.2689,-1.8554,11.357,92.223,-78.565,-36.849
"2000-05-22 06:00:03.011 UTC",1.8446,-13.46,6.7689,-2.3554,8.6574,64.223,-94.565,-50.849
"2000-05-22 06:00:03.016 UTC",0.1446,-11.96,4.7689,-3.3554,6.9574,64.223,-74.565,-46.849
"2000-05-22 06:00:03.019 UTC",-1.2554,-12.36,4.7689,-3.5554,4.8574,56.223,-78.565,-42.849
"2000-05-22 06:00:03.024 UTC",-0.4554,-9.9596,4.7689,-3.7554,3.6574,66.223,-54.565,-30.849
"2000-05-22 06:00:03.027 UTC",-1.4554,-9.6596,4.8689,-4.0554,4.7574,76.223,-30.565,-8.8493
"2000-05-22 06:00:03.031 UTC",0.2446,-8.7596,4.3689,-4.3554,4.4574,54.223,-38.565,-12.849
"2000-05-22 06:00:03.036 UTC",-2.6554,-9.4596,1.8689,-4.5554,3.3574,24.223,-64.565,-22.849
"2000-05-22 06:00:03.039 UTC",-2.2554,-8.2596,2.2689,-5.3554,2.5574,14.223,-58.565,-24.849
"2000-05-22 06:00:03.044 UTC",-2.2554,-6.5596,4.5689,-4.4554,4.7574,38.223,-24.565,-6.8493
"2000-05-22 06:00:03.047 UTC",-0.4554,-4.6596,6.1689,-6.3554,4.0574,40.223,-26.565,1.1507
"2000-05-22 06:00:03.052 UTC",1.6446,-1.5596,5.7689,-4.9554,3.5574,42.223,-26.565,-4.8493
"2000-05-22 06:00:03.055 UTC",-0.7554,-3.9596,3.0689,-5.5554,0.9574,28.223,-32.565,-8.8493
"2000-05-22 06:00:03.059 UTC",-0.1554,-2.8596,1.1689,-3.7554,-0.8426,24.223,-26.565,-10.849
"2000-05-22 06:00:03.064 UTC",1.5446,-0.9596,-1.2311,-2.7554,1.2574,34.223,-16.565,-12.849
"2000-05-22 06:00:03.067 UTC",8.8446,6.7404,-4.0311,-2.0554,4.2574,48.223,7.435,23.151
"2000-05-22 06:00:03.072 UTC",17.745,15.44,-11.331,-4.0554,-1.9426,10.223,-16.565,23.151
"2000-05-22 06:00:03.075 UTC",14.045,15.54,-15.331,-4.5554,-8.0426,20.223,-12.565,15.151
"2000-05-22 06:00:03.080 UTC",4.3446,7.3404,-15.231,-8.6554,-14.743,-17.777,-28.565,-10.849
"2000-05-22 06:00:03.083 UTC",-12.755,-5.2596,-3.3311,-9.7554,-15.143,6.2229,-22.565,-8.8493
"2000-05-22 06:00:03.088 UTC",-16.655,-10.56,4.7689,-14.555,-12.343,4.2229,-0.565,13.151
"2000-05-22 06:00:03.092 UTC",-8.2554,-4.2596,4.2689,-11.755,-9.0426,-1.7771,-2.565,27.151
"2000-05-22 06:00:03.095 UTC",-4.6554,0.5404,1.0689,-9.4554,-7.5426,6.2229,9.435,43.151
"2000-05-22 06:00:03.100 UTC",-6.0554,1.2404,0.2689,-8.3554,-7.4426,-1.7771,7.435,39.151
"2000-05-22 06:00:03.103 UTC",-5.9554,0.9404,0.6689,-9.0554,-7.1426,-15.777,-2.565,21.151
"2000-05-22 06:00:03.108 UTC",-3.8554,3.3404,1.7689,-9.0554,-7.0426,-3.7771,9.435,29.151
"2000-05-22 06:00:03.111 UTC",-4.4554,5.5404,0.0689,-6.9554,-8.9426,-1.7771,19.435,37.151
"2000-05-22 06:00:03.116 UTC",-2.1554,5.8404,0.0689,-6.3554,-7.9426,-7.7771,19.435,35.151
"2000-05-22 06:00:03.120 UTC",-3.5554,3.6404,0.4689,-6.1554,-5.7426,-7.7771,23.435,39.151
"2000-05-22 06:00:03.123 UTC",-4.0554,2.6404,0.4689,-8.7554,-4.7426,-11.777,25.435,31.151
"2000-05-22 06:00:03.128 UTC",-6.5554,2.8404,-1.4311,-7.9554,-3.5426,-7.7771,27.435,27.151
"2000-05-22 06:00:03.131 UTC",-5.6554,4.2404,-2.3311,-7.9554,-4.5426,-1.7771,43.435,37.151
"2000-05-22 06:00:03.136 UTC",-3.6554,4.4404,-0.5311,-6.3554,-6.8426,-11.777,25.435,19.151
"2000-05-22 06:00:03.139 UTC",-4.3554,3.2404,-2.1311,-7.2554,-7.6426,-21.777,29.435,27.151
"2000-05-22 06:00:03.144 UTC",-5.7554,1.9404,-1.2311,-6.3554,-8.0426,-33.777,21.435,27.151
"2000-05-22 06:00:03.148 UTC",-4.6554,5.0404,-1.3311,-5.7554,-7.5426,-33.777,25.435,37.151
"2000-05-22 06:00:03.151 UTC",-5.9554,5.5404,-2.9311,-5.4554,-5.7426,-29.777,53.435,49.151
"2000-05-22 06:00:03.156 UTC",-4.1554,6.8404,-1.5311,-4.2554,-3.1426,-19.777,55.435,47.151
"2000-05-22 06:00:03.159 UTC",-6.2554,5.6404,-1.7311,-6.5554,-3.3426,-37.777,35.435,33.151
"2000-05-22 06:00:03.164 UTC",-5.1554,5.0404,-0.4311,-6.4554,-2.8426,-35.777,35.435,33.151
"2000-05-22 06:00:03.167 UTC",-6.7554,6.4404,-2.2311,-5.3554,-2.7426,-31.777,31.435,37.151
"2000-05-22 06:00:03.172 UTC",-6.0554,8.8404,-0.6311,-5.3554,-3.9426,-27.777,47.435,47.151
"2000-05-22 06:00:03.175 UTC",-5.6554,6.9404,0.7689,-3.8554,-3.1426,-5.7771,51.435,39.151
"2000-05-22 06:00:03.179 UTC",-3.4554,4.2404,2.1689,-4.4554,-3.5426,-37.777,19.435,25.151
"2000-05-22 06:00:03.184 UTC",-4.6554,3.4404,-0.3311,-5.2554,-3.6426,-31.777,37.435,33.151
"2000-05-22 06:00:03.187 UTC",-5.5554,2.1404,0.4689,-5.0554,-3.2426,-13.777,39.435,45.151
"2000-05-22 06:00:03.192 UTC",-4.4554,2.6404,3.4689,-4.4554,-3.8426,-9.7771,21.435,35.151
"2000-05-22 06:00:03.195 UTC",-3.7554,3.0404,2.2689,-7.5554,-3.8426,6.2229,21.435,23.151
"2000-05-22 06:00:03.200 UTC",-2.5554,0.4404,2.1689,-7.2554,-3.0426,-9.7771,-4.565,21.151
"2000-05-22 06:00:03.203 UTC",-1.0554,-0.8596,2.0689,-5.3554,-1.1426,-7.7771,-14.565,3.1507
"2000-05-22 06:00:03.207 UTC",-2.3554,-2.0596,3.7689,-3.1554,1.6574,26.223,7.435,21.151
"2000-05-22 06:00:03.212 UTC",-1.1554,-1.9596,4.5689,-3.6554,1.9574,26.223,-2.565,11.151
"2000-05-22 06:00:03.215 UTC",-1.3554,-4.4596,7.1689,-6.0554,5.7574,44.223,-6.565,-10.849
"2000-05-22 06:00:03.220 UTC",-0.5554,-6.6596,5.0689,-7.7554,4.3574,6.2229,-48.565,-26.849
"2000-05-22 06:00:03.223 UTC",0.8446,-5.9596,6.5689,-7.5554,5.9574,24.223,-52.565,-42.849
"2000-05-22 06:00:03.228 UTC",0.7446,-5.7596,6.7689,-8.2554,5.7574,28.223,-50.565,-40.849
"2000-05-22 06:00:03.231 UTC",2.4446,-3.9596,7.4689,-7.1554,5.9574,32.223,-58.565,-56.849
"2000-05-22 06:00:03.235 UTC",2.8446,-4.3596,8.4689,-5.4554,6.2574,36.223,-56.565,-52.849
"2000-05-22 06:00:03.240 UTC",3.5446,-4.6596,8.4689,-6.4554,5.6574,44.223,-52.565,-62.849
"2000-05-22 06:00:03.243 UTC",4.7446,-3.4596,6.5689,-7.9554,4.3574,36.223,-62.565,-68.849
"2000-05-22 06:00:03.248 UTC",5.0446,-5.5596,7.9689,-8.2554,4.5574,32.223,-66.565,-64.849
"2000-05-22 06:00:03.251 UTC",4.5446,-6.3596,7.2689,-5.7554,5.4574,28.223,-56.565,-54.849
"2000-05-22 06:00:03.256 UTC",2.8446,-4.0596,6.7689,-5.7554,5.9574,28.223,-48.565,-42.849
"2000-05-22 06:00:03.259 UTC",2.2446,-3.0596,6.8689,-5.8554,6.7574,28.223,-44.565,-44.849
"2000-05-22 06:00:03.264 UTC",3.4446,-2.0596,7.2689,-4.4554,7.0574,6.2229,-58.565,-58.849
"2000-05-22 06:00:03.268 UTC",3.2446,-2.1596,7.1689,-1.9554,8.6574,20.223,-60.565,-64.849
"2000-05-22 06:00:03.271 UTC",2.1446,-5.3596,6.7689,-5.1554,8.7574,20.223,-48.565,-56.849
"2000-05-22 06:00:03.276 UTC",2.4446,-6.9596,6.7689,-6.3554,7.2574,16.223,-50.565,-46.849
"2000-05-22 06:00:03.279 UTC",0.1446,-5.7596,7.5689,-7.1554,4.8574,-1.7771,-54.565,-52.849
"2000-05-22 06:00:03.284 UTC",0.2446,-4.3596,8.0689,-6.2554,4.7574,20.223,-24.565,-20.849
"2000-05-22 06:00:03.287 UTC",0.2446,-3.9596,6.9689,-5.6554,2.9574,12.223,-38.565,-34.849
"2000-05-22 06:00:03.292 UTC",-0.2554,-2.8596,5.7689,-5.9554,3.9574,24.223,-32.565,-38.849
"2000-05-22 06:00:03.296 UTC",-1.1554,-4.3596,4.6689,-7.4554,3.7574,20.223,-26.565,-24.849
"2000-05-22 06:00:03.299 UTC",-1.3554,-2.2596,4.4689,-4.8554,3.4574,14.223,-8.565,-10.849
"2000-05-22 06:00:03.304 UTC",-0.8554,-1.8596,5.2689,-3.2554,2.5574,-1.7771,-34.565,-24.849
"2000-05-22 06:00:03.307 UTC",-1.5554,-3.3596,4.6689,-3.0554,1.6574,12.223,-6.565,-2.8493
"2000-05-22 06:00:03.312 UTC",-2.6554,-2.2596,4.1689,-4.4554,-0.1426,-3.7771,-22.565,-6.8493
"2000-05-22 06:00:03.315 UTC",-4.0554,-1.3596,5.3689,-6.3554,0.8574,-5.7771,-16.565,-10.849
"2000-05-22 06:00:03.320 UTC",-4.6554,-2.8596,6.1689,-5.4554,2.1574,-7.7771,-28.565,-24.849
"2000-05-22 06:00:03.324 UTC",-3.9554,-1.9596,5.9689,-6.9554,1.6574,-25.777,-22.565,-28.849
"2000-05-22 06:00:03.327 UTC",-4.0554,-4.2596,6.5689,-5.2554,3.1574,-11.777,-14.565,-30.849
"2000-05-22 06:00:03.332 UTC",-3.6554,-4.4596,6.4689,-3.8554,3.4574,-7.7771,-10.565,-8.8493
"2000-05-22 06:00:03.335 UTC",-2.9554,-3.3596,5.4689,-2.9554,3.4574,6.2229,-0.565,7.1507
"2000-05-22 06:00:03.340 UTC",-5.0554,-4.7596,5.6689,-3.8554,2.6574,2.2229,-6.565,3.1507
"2000-05-22 06:00:03.343 UTC",-4.3554,-2.9596,5.5689,-4.9554,2.1574,0.2229,-16.565,-0.8493
"2000-05-22 06:00:03.348 UTC",-4.8554,-3.8596,5.6689,-5.5554,0.7574,-17.777,-26.565,-14.849
"2000-05-22 06:00:03.351 UTC",-2.8554,-2.0596,6.2689,-4.5554,0.0574,2.2229,-2.565,-0.8493
"2000-05-22 06:00:03.355 UTC",-3.0554,-2.1596,2.8689,-4.4554,-0.7426,-5.7771,-18.565,-8.8493
"2000-05-22 06:00:03.360 UTC",-5.7554,-3.4596,3.6689,-3.2554,0.7574,4.2229,-6.565,-2.8493
"2000-05-22 06:00:03.363 UTC",-6.7554,-6.3596,3.3689,-2.5554,0.6574,-13.777,-24.565,-12.849
"2000-05-22 06:00:03.368 UTC",-5.8554,-3.4596,4.0689,-3.8554,0.2574,4.2229,-2.565,3.1507
"2000-05-22 06:00:03.371 UTC",-4.3554,-0.5596,3.8689,-4.9554,-1.9426,-17.777,-18.565,-14.849
"2000-05-22 06:00:03.376 UTC",-2.9554,0.1404,4.9689,-3.0554,-0.2426,-3.7771,-18.565,-14.849
"2000-05-22 06:00:03.379 UTC",-3.9554,-1.8596,4.5689,-5.0554,1.7574,0.2229,-4.565,3.1507
"2000-05-22 06:00:03.383 UTC",-4.6554,-2.2596,3.9689,-4.6554,1.4574,-9.7771,-16.565,-0.8493
"2000-05-22 06:00:03.388 UTC",-4.4554,-2.5596,3.5689,-2.5554,3.4574,-3.7771,-12.565,-8.8493
"2000-05-22 06:00:03.391 UTC",-5.4554,-3.2596,2.2689,-3.1554,3.8574,-7.7771,-2.565,13.151
"2000-05-22 06:00:03.396 UTC",-5.0554,-1.2596,1.6689,-3.2554,2.5574,-9.7771,-10.565,7.1507
"2000-05-22 06:00:03.399 UTC",-3.0554,0.8404,1.3689,-4.5554,2.3574,-7.7771,-18.565,3.1507
"2000-05-22 06:00:03.404 UTC",-3.0554,-0.8596,2.1689,-3.9554,4.4574,18.223,9.435,25.151
"2000-05-22 06:00:03.407 UTC",-2.2554,-3.3596,3.1689,-3.1554,2.2574,2.2229,-6.565,-0.8493
"2000-05-22 06:00:03.411 UTC",-3.9554,-3.2596,4.0689,-4.0554,1.3574,10.223,1.435,-10.849
"2000-05-22 06:00:03.416 UTC",-5.2554,-3.8596,2.9689,-6.2554,0.7574,-5.7771,-2.565,7.1507
"2000-05-22 06:00:03.419 UTC",-4.6554,-2.7596,3.5689,-7.4554,2.6574,-7.7771,-10.565,3.1507
"2000-05-22 06:00:03.424 UTC",-4.4554,-2.5596,4.2689,-5.5554,4.8574,6.2229,1.435,11.151
"2000-05-22 06:00:03.427 UTC",-5.6554,-4.5596,2.9689,-4.4554,3.8574,4.2229,11.435,27.151
"2000-05-22 06:00:03.432 UTC",-3.7554,-1.7596,2.8689,-3.0554,1.4574,4.2229,-10.565,1.1507
"2000-05-22 06:00:03.435 UTC",-4.5554,-0.9596,1.1689,-3.7554,0.0574,6.2229,-8.565,-6.8493
"2000-05-22 06:00:03.440 UTC",-4.1554,-1.6596,2.1689,-3.3554,-1.3426,2.2229,-6.565,-0.8493
"2000-05-22 06:00:03.444 UTC",-5.7554,0.0404,3.0689,-5.2554,-0.7426,6.2229,1.435,19.151
"2000-05-22 06:00:03.447 UTC",-7.7554,-1.5596,3.4689,-4.3554,0.3574,12.223,-2.565,13.151
"2000-05-22 06:00:03.452 UTC",-9.2554,-1.9596,2.9689,-3.1554,0.9574,38.223,21.435,37.151
"2000-05-22 06:00:03.455 UTC",-7.6554,-1.1596,0.8689,-2.1554,-1.0426,44.223,39.435,61.151
"2000-05-22 06:00:03.460 UTC",-7.5554,-0.1596,-0.9311,-2.7554,-1.1426,24.223,33.435,43.151
"2000-05-22 06:00:03.463 UTC",-7.3554,-0.2596,-2.0311,1.5446,-0.5426,22.223,43.435,63.151
"2000-05-22 06:00:03.468 UTC",-7.8554,1.1404,-5.1311,2.1446,-1.6426,10.223,33.435,39.151
"2000-05-22 06:00:03.472 UTC",-8.2554,-0.2596,-4.0311,1.2446,-1.0426,28.223,45.435,45.151
"2000-05-22 06:00:03.475 UTC",-10.655,-0.6596,-3.7311,-1.1554,-1.5426,36.223,53.435,57.151
"2000-05-22 06:00:03.480 UTC",-9.4554,1.6404,-0.3311,-3.2554,1.3574,38.223,51.435,43.151
"2000-05-22 06:00:03.483 UTC",-8.4554,0.9404,1.4689,-5.6554,1.5574,10.223,27.435,35.151
"2000-05-22 06:00:03.488 UTC",-5.1554,-0.0596,4.3689,-6.7554,3.0574,0.2229,13.435,19.151
"2000-05-22 06:00:03.491 UTC",-3.2554,-1.6596,2.7689,-6.5554,0.3574,-35.777,3.435,19.151
"2000-05-22 06:00:03.496 UTC",-2.8554,-2.5596,1.6689,-7.0554,0.9574,-45.777,-2.565,5.1507
"2000-05-22 06:00:03.500 UTC",-1.4554,-0.4596,0.7689,-5.6554,1.6574,-27.777,7.435,9.1507
"2000-05-22 06:00:03.503 UTC",-1.5554,1.4404,0.0689,-5.1554,1.3574,-35.777,-4.565,-14.849
"2000-05-22 06:00:03.508 UTC",-1.8554,1.9404,-0.0311,-3.6554,2.7574,-47.777,-22.565,-22.849
"2000-05-22 06:00:03.511 UTC",2.0446,5.3404,-0.0311,-0.7554,5.4574,-17.777,-4.565,-12.849
"2000-05-22 06:00:03.516 UTC",6.6446,7.1404,-0.5311,-2.0554,10.557,-37.777,-22.565,-26.849
"2000-05-22 06:00:03.519 UTC",15.245,12.24,-3.7311,-2.6554,12.157,-15.777,-4.565,-16.849
"2000-05-22 06:00:03.524 UTC",17.545,14.14,-10.231,-3.9554,4.1574,-17.777,-32.565,-50.849
"2000-05-22 06:00:03.527 UTC",9.4446,7.8404,-12.531,-5.0554,-3.7426,-7.7771,-22.565,-32.849
"2000-05-22 06:00:03.531 UTC",-4.3554,-6.2596,-2.2311,-5.7554,-8.2426,-13.777,-30.565,-40.849
"2000-05-22 06:00:03.536 UTC",-15.355,-14.36,8.0689,-9.6554,-6.9426,-21.777,-28.565,-12.849
"2000-05-22 06:00:03.539 UTC",-10.255,-10.26,10.969,-11.955,-3.0426,-11.777,-36.565,-28.849
"2000-05-22 06:00:03.544 UTC",-3.7554,-5.9596,9.0689,-12.455,0.7574,2.2229,-26.565,-20.849
"2000-05-22 06:00:03.547 UTC",-0.1554,-4.6596,7.0689,-9.7554,3.0574,8.2229,-14.565,-18.849
"2000-05-22 06:00:03.552 UTC",-0.1554,-4.8596,6.4689,-11.055,2.8574,-23.777,-38.565,-44.849
"2000-05-22 06:00:03.555 UTC",-1.7554,-4.3596,3.5689,-6.8554,2.5574,8.2229,3.435,-10.849
"2000-05-22 06:00:03.559 UTC",-0.1554,-1.8596,2.9689,-5.1554,0.0574,-11.777,-18.565,-16.849
"2000-05-22 06:00:03.564 UTC",-0.0554,-1.7596,4.0689,-8.2554,-0.1426,-13.777,-14.565,-12.849
"2000-05-22 06:00:03.567 UTC",-2.0554,-3.8596,6.9689,-8.2554,1.5574,-31.777,-28.565,-18.849
"2000-05-22 06:00:03.572 UTC",-3.4554,-5.5596,6.2689,-6.7554,2.6574,-31.777,-18.565,-2.8493
"2000-05-22 06:00:03.575 UTC",-2.4554,-5.6596,6.5689,-6.0554,2.9574,-11.777,-10.565,3.1507
"2000-05-22 06:00:03.580 UTC",-2.4554,-3.9596,3.3689,-6.3554,-0.3426,-7.7771,-16.565,-10.849
"2000-05-22 06:00:03.583 UTC",-0.3554,-1.6596,1.6689,-6.0554,-0.1426,0.2229,-12.565,-14.849
"2000-05-22 06:00:03.588 UTC",0.6446,-2.7596,1.1689,-7.0554,-1.0426,-1.7771,-6.565,-2.8493
"2000-05-22 06:00:03.592 UTC",1.1446,-3.3596,2.8689,-8.8554,-2.2426,-3.7771,-12.565,5.1507
"2000-05-22 06:00:03.595 UTC",-0.3554,-3.6596,3.1689,-7.8554,-0.7426,-3.7771,-32.565,-4.8493
"2000-05-22 06:00:03.600 UTC",-3.1554,-7.5596,5.5689,-4.8554,4.1574,28.223,-34.565,7.1507
"2000-05-22 06:00:03.603 UTC",-6.5554,-12.06,5.9689,0.5446,7.0574,44.223,-46.565,13.151
"2000-05-22 06:00:03.608 UTC",-9.8554,-14.36,6.5689,2.7446,8.6574,56.223,-24.565,21.151
"2000-05-22 06:00:03.611 UTC",-10.655,-12.06,6.6689,3.7446,6.2574,66.223,51.435,69.151
"2000-05-22 06:00:03.616 UTC",-13.055,-3.2596,0.0689,3.6446,-5.2426,-9.7771,145.44,191.15
"2000-05-22 06:00:03.620 UTC",-20.855,8.3404,-11.031,6.3446,-18.843,-131.78,287.44,341.15
"2000-05-22 06:00:03.623 UTC",-30.555,26.14,-26.531,6.8446,-37.843,-275.78,485.43,511.15
"2000-05-22 06:00:03.628 UTC",-37.155,50.64,-41.031,3.9446,-58.843,-455.78,629.43,621.15
"2000-05-22 06:00:03.631 UTC",-42.755,68.44,-52.931,2.1446,-74.543,-623.78,737.43,743.15
"2000-05-22 06:00:03.636 UTC",-46.855,84.74,-62.031,0.0446,-86.643,-695.78,809.43,733.15
"2000-05-22 06:00:03.639 UTC",-40.955,95.04,-62.031,-10.255,-84.743,-581.78,697.43,481.15
"2000-05-22 06:00:03.644 UTC",-11.055,92.54,-44.531,-26.355,-65.143,-351.78,415.43,107.15
"2000-05-22 06:00:03.648 UTC",17.345,77.14,-22.831,-36.755,-40.143,-105.78,131.44,-136.85
"2000-05-22 06:00:03.651 UTC",34.745,51.44,-4.6311,-40.255,-17.443,24.223,-150.56,-350.85
"2000-05-22 06:00:03.656 UTC",39.645,23.74,9.4689,-35.555,1.4574,160.22,-260.56,-372.85
"2000-05-22 06:00:03.659 UTC",34.745,2.3404,13.669,-24.955,13.057,194.22,-264.56,-308.85
"2000-05-22 06:00:03.664 UTC",23.645,-13.66,17.069,-15.055,18.757,180.22,-258.56,-236.85
"2000-05-22 06:00:03.667 UTC",13.345,-24.06,17.069,-8.1554,21.657,168.22,-220.56,-170.85
"2000-05-22 06:00:03.672 UTC",8.1446,-29.76,17.669,-6.0554,23.957,146.22,-206.56,-142.85
"2000-05-22 06:00:03.675 UTC",5.3446,-32.06,18.069,-4.2554,24.757,140.22,-206.56,-138.85
"2000-05-22 06:00:03.679 UTC",3.0446,-31.66,16.769,-4.1554,23.857,136.22,-196.56,-124.85
"2000-05-22 06:00:03.684 UTC",1.4446,-29.76,15.369,-3.4554,24.557,138.22,-186.56,-110.85
"2000-05-22 06:00:03.687 UTC",2.9446,-29.66,15.269,0.1446,24.157,118.22,-200.56,-118.85
"2000-05-22 06:00:03.692 UTC",0.2446,-29.56,14.569,1.6446,21.957,112.22,-176.56,-96.849
"2000-05-22 06:00:03.695 UTC",0.2446,-28.26,14.469,-0.0554,19.657,84.223,-180.56,-104.85
"2000-05-22 06:00:03.700 UTC",-0.3554,-25.86,14.669,-1.5554,19.457,100.22,-142.56,-72.849
"2000-05-22 06:00:03.703 UTC",0.6446,-21.86,14.769,-1.3554,18.357,96.223,-146.56,-90.849
"2000-05-22 06:00:03.707 UTC",-3.3554,-22.76,12.469,0.2446,17.557,88.223,-138.56,-86.849
"2000-05-22 06:00:03.712 UTC",-2.5554,-20.76,10.369,-0.5554,15.457,72.223,-126.56,-60.849
"2000-05-22 06:00:03.715 UTC",-2.5554,-18.56,8.7689,-2.4554,13.257,70.223,-118.56,-56.849
"2000-05-22 06:00:03.720 UTC",-1.8554,-16.56,7.4689,-4.7554,12.157,72.223,-92.565,-36.849
"2000-05-22 06:00:03.723 UTC",0.6446,-13.16,9.6689,-1.9554,13.357,82.223,-88.565,-54.849
"2000-05-22 06:00:03.728 UTC",0.0446,-14.96,10.169,-3.6554,13.057,72.223,-80.565,-48.849
"2000-05-22 06:00:03.731 UTC",-2.0554,-13.86,7.1689,-2.6554,12.157,70.223,-64.565,-46.849
"2000-05-22 06:00:03.735 UTC",-2.4554,-12.26,5.2689,-2.8554,9.9574,50.223,-58.565,-24.849
"2000-05-22 06:00:03.740 UTC",-1.1554,-10.46,4.3689,-2.4554,8.3574,50.223,-52.565,-14.849
"2000-05-22 06:00:03.743 UTC",-2.3554,-8.9596,4.5689,-3.2554,6.7574,38.223,-54.565,-16.849
"2000-05-22 06:00:03.748 UTC",-1.4554,-7.8596,4.8689,-5.3554,6.6574,36.223,-38.565,-16.849
"2000-05-22 06:00:03.751 UTC",-3.2554,-8.6596,3.6689,-3.8554,6.1574,40.223,-36.565,-14.849
"2000-05-22 06:00:03.756 UTC",-3.0554,-9.8596,3.0689,-2.2554,4.3574,50.223,-28.565,-16.849
"2000-05-22 06:00:03.759 UTC",-3.3554,-8.0596,4.6689,-5.2554,2.5574,46.223,-32.565,-20.849
"2000-05-22 06:00:03.764 UTC",-3.0554,-6.7596,3.9689,-5.8554,4.1574,42.223,-28.565,-22.849
"2000-05-22 06:00:03.768 UTC",-3.0554,-7.9596,2.3689,-5.4554,4.2574,32.223,-28.565,-6.8493
"2000-05-22 06:00:03.771 UTC",-2.3554,-5.5596,1.4689,-5.2554,2.2574,18.223,-36.565,-0.8493
"2000-05-22 06:00:03.776 UTC",-5.9554,-5.0596,0.9689,-3.1554,1.5574,32.223,-6.565,15.151
"2000-05-22 06:00:03.779 UTC",-4.7554,-4.4596,1.1689,-3.2554,-1.1426,24.223,-20.565,-8.8493
"2000-05-22 06:00:03.784 UTC",-4.6554,-4.9596,0.5689,-4.3554,-0.6426,24.223,-12.565,-2.8493
"2000-05-22 06:00:03.787 UTC",-4.5554,-3.9596,0.0689,-6.3554,-0.9426,8.2229,-14.565,-8.8493
"2000-05-22 06:00:03.792 UTC",-3.0554,-1.8596,0.4689,-4.8554,0.0574,8.2229,-6.565,-6.8493
"2000-05-22 06:00:03.796 UTC",-6.2554,-2.3596,0.1689,-4.4554,0.9574,40.223,23.435,37.151
"2000-05-22 06:00:03.799 UTC",-2.7554,-1.1596,-0.2311,-3.1554,-0.6426,12.223,-0.565,7.1507
"2000-05-22 06:00:03.804 UTC",-4.9554,-2.4596,1.2689,-3.4554,-0.2426,34.223,19.435,21.151
"2000-05-22 06:00:03.807 UTC",-4.1554,-1.3596,-0.2311,-4.2554,-3.5426,-1.7771,5.435,19.151
"2000-05-22 06:00:03.812 UTC",-4.4554,-0.0596,-1.2311,-3.2554,-2.7426,6.2229,9.435,15.151
"2000-05-22 06:00:03.815 UTC",-4.4554,-1.6596,-0.3311,-4.1554,-2.6426,-9.7771,7.435,27.151
"2000-05-22 06:00:03.820 UTC",-5.6554,0.2404,-4.3311,-5.9554,-4.7426,-11.777,11.435,13.151
"2000-05-22 06:00:03.824 UTC",-3.5554,1.3404,-3.7311,-6.8554,-5.0426,-1.7771,23.435,29.151
"2000-05-22 06:00:03.827 UTC",-3.7554,0.9404,-2.6311,-6.9554,-6.3426,-1.7771,23.435,41.151
"2000-05-22 06:00:03.832 UTC",-1.9554,3.8404,-2.3311,-5.9554,-5.6426,0.2229,27.435,47.151
"2000-05-22 06:00:03.835 UTC",-4.9554,1.8404,-3.5311,-4.1554,-5.3426,-11.777,35.435,47.151
"2000-05-22 06:00:03.840 UTC",-5.7554,2.2404,-3.1311,-5.9554,-3.9426,-23.777,29.435,35.151
"2000-05-22 06:00:03.843 UTC",-5.9554,3.5404,-2.7311,-3.7554,-3.1426,-7.7771,41.435,47.151
"2000-05-22 06:00:03.848 UTC",-4.4554,4.0404,-3.1311,-6.4554,-3.9426,-19.777,33.435,55.151
"2000-05-22 06:00:03.851 UTC",-5.7554,4.0404,-4.1311,-8.2554,-4.0426,-19.777,45.435,53.151
"2000-05-22 06:00:03.855 UTC",-3.2554,7.6404,-4.1311,-9.2554,-5.3426,-17.777,49.435,57.151
"2000-05-22 06:00:03.860 UTC",-2.0554,9.3404,-5.0311,-11.255,-7.6426,-27.777,37.435,31.151
"2000-05-22 06:00:03.863 UTC",-3.6554,9.1404,-5.0311,-11.155,-7.0426,-13.777,55.435,33.151
"2000-05-22 06:00:03.868 UTC",-4.5554,5.8404,-5.8311,-11.455,-7.9426,-25.777,61.435,59.151
"2000-05-22 06:00:03.871 UTC",-3.9554,6.8404,-2.4311,-7.3554,-4.9426,-17.777,47.435,33.151
"2000-05-22 06:00:03.876 UTC",-5.6554,4.2404,-2.1311,-6.1554,-4.0426,-11.777,69.435,63.151
"2000-05-22 06:00:03.879 UTC",-4.4554,5.4404,-1.3311,-4.2554,-4.5426,-33.777,37.435,43.151
"2000-05-22 06:00:03.883 UTC",-3.7554,6.6404,-0.7311,-2.2554,-4.4426,-27.777,49.435,57.151
"2000-05-22 06:00:03.888 UTC",-3.9554,6.8404,-3.2311,-1.6554,-3.6426,-33.777,49.435,53.151
"2000-05-22 06:00:03.891 UTC",-6.8554,5.0404,-4.0311,-4.9554,-3.6426,-47.777,41.435,57.151
"2000-05-22 06:00:03.896 UTC",-6.4554,5.2404,-4.2311,-4.7554,-2.0426,-15.777,53.435,47.151
"2000-05-22 06:00:03.899 UTC",-6.5554,4.7404,-4.1311,-4.3554,-1.6426,-3.7771,65.435,67.151
"2000-05-22 06:00:03.904 UTC",-4.9554,5.3404,-3.1311,-4.5554,-1.2426,-13.777,39.435,51.151
"2000-05-22 06:00:03.907 UTC",-3.8554,4.6404,-2.3311,-3.4554,1.3574,4.2229,33.435,37.151
"2000-05-22 06:00:03.911 UTC",-2.5554,1.2404,-3.1311,-4.1554,0.1574,-1.7771,31.435,27.151
"2000-05-22 06:00:03.916 UTC",-1.5554,0.7404,-1.6311,-2.3554,0.0574,-1.7771,3.435,29.151
"2000-05-22 06:00:03.919 UTC",0.5446,-0.1596,-0.1311,-3.1554,3.2574,12.223,17.435,35.151
"2000-05-22 06:00:03.924 UTC",-1.5554,-3.6596,3.0689,-2.6554,5.6574,6.2229,5.435,39.151
"2000-05-22 06:00:03.927 UTC",-1.7554,-4.6596,3.2689,-0.5554,7.3574,-1.7771,-22.565,13.151
"2000-05-22 06:00:03.932 UTC",-2.6554,-5.6596,5.4689,-0.8554,7.4574,38.223,-24.565,-8.8493
"2000-05-22 06:00:03.935 UTC",-1.0554,-6.4596,4.7689,-4.0554,6.6574,50.223,-16.565,-18.849
"2000-05-22 06:00:03.940 UTC",-0.8554,-5.1596,3.2689,-4.8554,7.9574,30.223,-36.565,-20.849
"2000-05-22 06:00:03.944 UTC",0.1446,-5.3596,5.8689,-6.6554,10.057,40.223,-42.565,-28.849
"2000-05-22 06:00:03.947 UTC",-1.3554,-5.9596,7.3689,-7.5554,11.157,42.223,-42.565,-44.849
"2000-05-22 06:00:03.952 UTC",-0.3554,-7.4596,6.2689,-6.4554,10.857,32.223,-52.565,-34.849
"2000-05-22 06:00:03.955 UTC",1.0446,-6.5596,6.6689,-3.2554,10.457,20.223,-78.565,-58.849
"2000-05-22 06:00:03.960 UTC",2.3446,-8.3596,4.2689,-0.7554,10.857,46.223,-62.565,-36.849
"2000-05-22 06:00:03.963 UTC",6.7446,-2.7596,0.4689,-1.3554,8.2574,50.223,-56.565,-50.849
"2000-05-22 06:00:03.968 UTC",13.245,3.8404,0.4689,-1.0554,10.657,44.223,-64.565,-72.849
"2000-05-22 06:00:03.972 UTC",18.245,9.1404,-4.8311,-2.1554,9.6574,34.223,-60.565,-72.849
"2000-05-22 06:00:03.975 UTC",16.245,7.3404,-7.9311,-2.1554,5.0574,34.223,-50.565,-66.849
"2000-05-22 06:00:03.980 UTC",8.8446,1.5404,-5.7311,-4.3554,-1.8426,38.223,-44.565,-56.849
"2000-05-22 06:00:03.983 UTC",-8.3554,-12.76,6.4689,-9.5554,-4.6426,36.223,-48.565,-54.849
"2000-05-22 06:00:03.988 UTC",-13.155,-16.76,9.7689,-13.155,-2.3426,30.223,-48.565,-40.849
"2000-05-22 06:00:03.991 UTC",-5.2554,-10.86,9.4689,-12.755,2.0574,8.2229,-70.565,-66.849
"2000-05-22 06:00:03.996 UTC",0.8446,-6.2596,8.6689,-8.2554,5.9574,34.223,-26.565,-30.849
"2000-05-22 06:00:04.000 UTC",2.8446,-2.7596,3.9689,-5.8554,3.4574,10.223,-28.565,-26.849
"2000-05-22 06:00:04.003 UTC",0.4446,-3.0596,3.5689,-5.2554,3.5574,18.223,-38.565,-38.849
"2000-05-22 06:00:04.008 UTC",-0.5554,-4.3596,2.3689,-6.9554,3.6574,16.223,-0.565,-10.849
"2000-05-22 06:00:04.011 UTC",-0.7554,-3.3596,3.4689,-7.3554,3.9574,6.2229,-36.565,-54.849
"2000-05-22 06:00:04.016 UTC",-1.1554,-3.4596,3.6689,-5.4554,3.6574,26.223,-12.565,-22.849
"2000-05-22 06:00:04.019 UTC",-2.3554,-5.2596,1.4689,-6.0554,2.0574,8.2229,-16.565,-18.849
"2000-05-22 06:00:04.024 UTC",-2.4554,-3.6596,1.5689,-6.5554,1.5574,-1.7771,-28.565,-18.849
"2000-05-22 06:00:04.027 UTC",-2.1554,-2.1596,1.6689,-6.2554,1.9574,18.223,-12.565,-14.849
"2000-05-22 06:00:04.031 UTC",-2.2554,-3.1596,2.0689,-6.2554,0.1574,12.223,-10.565,1.1507
"2000-05-22 06:00:04.036 UTC",-2.4554,-2.4596,3.9689,-7.6554,0.4574,10.223,-12.565,-6.8493
"2000-05-22 06:00:04.039 UTC",-3.3554,-3.6596,2.7689,-6.9554,-0.0426,2.2229,-24.565,-12.849
"2000-05-22 06:00:04.044 UTC",-4.1554,-1.1596,2.3689,-5.9554,1.6574,10.223,-0.565,-2.8493
"2000-05-22 06:00:04.047 UTC",-2.2554,-2.7596,1.4689,-4.2554,2.5574,14.223,9.435,15.151
"2000-05-22 06:00:04.052 UTC",-1.6554,-2.6596,-0.8311,-3.9554,2.2574,-3.7771,-6.565,-2.8493
"2000-05-22 06:00:04.055 UTC",-1.6554,0.4404,0.0689,-2.3554,1.3574,-15.777,-22.565,-18.849
"2000-05-22 06:00:04.059 UTC",-4.2554,-1.5596,1.0689,-6.0554,0.2574,-5.7771,-14.565,-14.849
"2000-05-22 06:00:04.064 UTC",-3.7554,-2.1596,1.8689,-3.2554,-0.2426,22.223,1.435,-8.8493
"2000-05-22 06:00:04.067 UTC",-2.6554,-2.8596,2.2689,-1.5554,-0.0426,8.2229,-6.565,-16.849
"2000-05-22 06:00:04.072 UTC",-0.8554,-1.2596,2.1689,-4.4554,0.2574,0.2229,-0.565,-12.849
"2000-05-22 06:00:04.075 UTC",-2.0554,-0.9596,2.0689,-5.2554,0.9574,-5.7771,-16.565,-26.849
"2000-05-22 06:00:04.080 UTC",-4.8554,-2.9596,0.8689,-4.0554,0.9574,-1.7771,3.435,21.151
"2000-05-22 06:00:04.083 UTC",-3.8554,-2.4596,3.2689,-4.7554,0.7574,2.2229,-0.565,1.1507
"2000-05-22 06:00:04.088 UTC",-2.4554,-3.4596,3.5689,-4.5554,1.5574,8.2229,7.435,11.151
"2000-05-22 06:00:04.092 UTC",-3.6554,-2.8596,3.4689,-3.9554,-0.4426,-7.7771,-20.565,-10.849
"2000-05-22 06:00:04.095 UTC",-4.0554,-2.5596,2.8689,-5.7554,-1.7426,12.223,-0.565,3.1507
"2000-05-22 06:00:04.100 UTC",-4.5554,-3.1596,1.1689,-5.6554,-3.7426,-7.7771,-16.565,-16.849
"2000-05-22 06:00:04.103 UTC",-3.7554,-1.5596,2.8689,-4.8554,-2.9426,-3.7771,-18.565,-26.849
"2000-05-22 06:00:04.108 UTC",-3.5554,-2.1596,2.1689,-5.4554,-1.2426,10.223,13.435,13.151
"2000-05-22 06:00:04.111 UTC",-1.5554,-1.5596,2.4689,-4.5554,-2.5426,-17.777,-30.565,-40.849
"2000-05-22 06:00:04.116 UTC",-2.8554,-2.5596,1.5689,-1.8554,-2.0426,10.223,-20.565,-32.849
"2000-05-22 06:00:04.120 UTC",-0.9554,-2.2596,2.1689,-2.9554,-0.0426,26.223,15.435,5.1507
"2000-05-22 06:00:04.123 UTC",-0.0554,-2.6596,1.0689,-3.4554,1.1574,24.223,-6.565,-12.849
"2000-05-22 06:00:04.128 UTC",-0.9554,-1.4596,-0.8311,-4.4554,0.3574,8.2229,-6.565,-16.849
"2000-05-22 06:00:04.131 UTC",-0.1554,-0.5596,0.8689,-3.9554,-1.1426,2.2229,-22.565,-28.849
"2000-05-22 06:00:04.136 UTC",0.2446,-2.1596,-0.1311,-3.8554,-3.0426,-7.7771,-14.565,-24.849
"2000-05-22 06:00:04.139 UTC",-0.0554,-1.3596,0.4689,-4.8554,-1.0426,16.223,11.435,1.1507
"2000-05-22 06:00:04.144 UTC",0.1446,-1.3596,2.1689,-4.4554,0.8574,-1.7771,-4.565,-6.8493
"2000-05-22 06:00:04.148 UTC",-0.8554,-0.9596,3.1689,-4.5554,1.0574,0.2229,1.435,-10.849
"2000-05-22 06:00:04.151 UTC",-1.5554,-0.6596,1.9689,-5.6554,-0.2426,-5.7771,-14.565,-20.849
"2000-05-22 06:00:04.156 UTC",-1.0554,0.1404,1.7689,-2.5554,0.3574,0.2229,-6.565,-16.849
"2000-05-22 06:00:04.159 UTC",-1.6554,1.1404,-0.1311,-3.7554,-1.5426,8.2229,-6.565,-6.8493
"2000-05-22 06:00:04.164 UTC",0.1446,0.9404,1.4689,-3.5554,-1.1426,16.223,7.435,5.1507
"2000-05-22 06:00:04.167 UTC",0.6446,-0.5596,0.9689,-3.3554,-1.2426,22.223,9.435,17.151
"2000-05-22 06:00:04.172 UTC",-1.6554,-1.6596,-0.9311,-2.9554,-4.5426,-9.7771,-14.565,3.1507
"2000-05-22 06:00:04.175 UTC",-4.2554,-2.2596,-0.5311,-0.4554,-3.0426,18.223,19.435,35.151
"2000-05-22 06:00:04.179 UTC",-2.5554,-2.6596,-0.2311,-0.3554,-3.3426,4.2229,13.435,25.151
"2000-05-22 06:00:04.184 UTC",-3.1554,0.4404,-2.3311,1.4446,-2.0426,28.223,31.435,33.151
"2000-05-22 06:00:04.187 UTC",-5.2554,3.6404,-4.4311,0.8446,-2.8426,16.223,25.435,27.151
"2000-05-22 06:00:04.192 UTC",-4.5554,4.4404,-4.0311,-1.1554,-4.5426,12.223,37.435,25.151
"2000-05-22 06:00:04.195 UTC",-5.9554,4.7404,-4.0311,-0.6554,-6.0426,10.223,35.435,23.151
"2000-05-22 06:00:04.200 UTC",-5.5554,5.2404,-5.0311,1.1446,-5.6426,20.223,51.435,35.151
"2000-05-22 06:00:04.203 UTC",-7.0554,3.9404,-6.1311,0.6446,-5.7426,32.223,53.435,31.151
"2000-05-22 06:00:04.207 UTC",-6.3554,2.7404,-6.1311,-2.1554,-5.9426,38.223,61.435,53.151
"2000-05-22 06:00:04.212 UTC",-4.6554,3.5404,-4.3311,-3.9554,-6.3426,4.2229,11.435,11.151
"2000-05-22 06:00:04.215 UTC",-4.6554,1.2404,-2.6311,-2.9554,-2.8426,14.223,25.435,13.151
"2000-05-22 06:00:04.220 UTC",-2.7554,0.9404,-1.0311,-3.8554,-2.8426,-19.777,-2.565,3.1507
"2000-05-22 06:00:04.223 UTC",-0.2554,2.0404,-2.2311,-2.7554,-2.6426,-3.7771,11.435,1.1507
"2000-05-22 06:00:04.228 UTC",-0.0554,2.0404,-2.8311,-6.3554,-3.6426,-19.777,1.435,-4.8493
"2000-05-22 06:00:04.231 UTC",2.5446,5.8404,-3.1311,-7.5554,-4.4426,-17.777,3.435,-12.849
"2000-05-22 06:00:04.235 UTC",1.4446,2.5404,-4.1311,-7.1554,-4.3426,-25.777,-8.565,-8.8493
"2000-05-22 06:00:04.240 UTC",-1.8554,1.5404,-3.2311,-4.5554,-1.9426,-21.777,-10.565,-16.849
"2000-05-22 06:00:04.243 UTC",-0.1554,0.1404,-2.8311,-4.7554,-2.0426,-21.777,-16.565,-24.849
"2000-05-22 06:00:04.248 UTC",2.3446,2.0404,-2.8311,-3.4554,-1.1426,-15.777,-18.565,-46.849
"2000-05-22 06:00:04.251 UTC",2.2446,2.4404,-1.3311,-4.4554,0.2574,-3.7771,-14.565,-26.849
"2000-05-22 06:00:04.256 UTC",2.8446,0.9404,0.1689,-4.5554,1.7574,-19.777,-32.565,-44.849
"2000-05-22 06:00:04.259 UTC",1.4446,-1.2596,-0.4311,-3.6554,0.8574,-21.777,-46.565,-42.849
"2000-05-22 06:00:04.264 UTC",1.5446,-2.6596,-0.0311,-1.6554,2.3574,8.2229,-10.565,-16.849
"2000-05-22 06:00:04.268 UTC",1.6446,-2.6596,-1.9311,-0.9554,0.8574,8.2229,-16.565,-6.8493
"2000-05-22 06:00:04.271 UTC",2.0446,-1.0596,-0.8311,0.0446,2.3574,20.223,-12.565,-12.849
"2000-05-22 06:00:04.276 UTC",1.9446,-2.0596,-1.2311,-2.1554,1.8574,-7.7771,-26.565,-34.849
"2000-05-22 06:00:04.279 UTC",1.8446,-2.4596,-0.7311,-2.1554,2.9574,-5.7771,-20.565,-36.849
"2000-05-22 06:00:04.284 UTC",0.1446,-1.7596,-1.1311,-1.6554,3.4574,-5.7771,-16.565,-24.849
"2000-05-22 06:00:04.287 UTC",0.6446,-0.1596,-2.9311,0.7446,3.6574,-17.777,-34.565,-42.849
"2000-05-22 06:00:04.292 UTC",1.4446,-1.0596,-1.9311,1.4446,5.4574,-1.7771,-24.565,-30.849
"2000-05-22 06:00:04.296 UTC",0.4446,-2.0596,-2.3311,0.4446,5.4574,-1.7771,-20.565,-18.849
"2000-05-22 06:00:04.299 UTC",1.1446,-1.0596,-1.0311,-0.7554,4.6574,-1.7771,-14.565,-14.849
"2000-05-22 06:00:04.304 UTC",1.4446,-0.7596,-0.3311,0.4446,4.5574,4.2229,-10.565,-12.849
"2000-05-22 06:00:04.307 UTC",-0.5554,-1.3596,-2.1311,0.0446,1.5574,-9.7771,-14.565,-8.8493
"2000-05-22 06:00:04.312 UTC",0.2446,-0.1596,-3.0311,0.9446,0.9574,-1.7771,-8.565,-2.8493
"2000-05-22 06:00:04.315 UTC",1.3446,-1.3596,-3.6311,-0.9554,1.3574,2.2229,1.435,1.1507
"2000-05-22 06:00:04.320 UTC",-0.3554,0.1404,-0.3311,-0.7554,3.1574,8.2229,-0.565,-6.8493
"2000-05-22 06:00:04.324 UTC",0.0446,-2.0596,2.1689,1.6446,5.6574,34.223,11.435,3.1507
"2000-05-22 06:00:04.327 UTC",-1.3554,-5.1596,1.0689,5.2446,5.7574,38.223,-32.565,-18.849
"2000-05-22 06:00:04.332 UTC",-5.5554,-14.16,-1.7311,7.9446,5.4574,16.223,-62.565,-14.849
"2000-05-22 06:00:04.335 UTC",-7.6554,-14.66,-0.0311,13.445,7.8574,52.223,-34.565,19.151
"2000-05-22 06:00:04.340 UTC",-7.9554,-13.66,0.3689,14.145,7.1574,78.223,41.435,83.151
"2000-05-22 06:00:04.343 UTC",-9.6554,-4.9596,-6.1311,13.045,-4.2426,-13.777,135.44,185.15
"2000-05-22 06:00:04.348 UTC",-17.355,6.9404,-13.931,17.545,-15.043,-97.777,289.44,325.15
"2000-05-22 06:00:04.351 UTC",-27.955,22.24,-28.631,16.345,-35.843,-281.78,451.43,489.15
"2000-05-22 06:00:04.355 UTC",-36.555,47.64,-44.831,12.445,-56.143,-433.78,625.43,627.15
"2000-05-22 06:00:04.360 UTC",-41.455,64.74,-57.831,9.3446,-73.143,-583.78,739.43,719.15
"2000-05-22 06:00:04.363 UTC",-46.455,82.74,-67.831,5.7446,-89.843,-651.78,861.43,757.15
"2000-05-22 06:00:04.368 UTC",-42.855,97.74,-71.531,-4.0554,-93.343,-549.78,805.43,563.15
"2000-05-22 06:00:04.371 UTC",-19.355,98.64,-56.731,-19.755,-74.443,-347.78,539.43,193.15
"2000-05-22 06:00:04.376 UTC",11.945,86.54,-33.031,-33.055,-48.143,-125.78,221.44,-112.85
"2000-05-22 06:00:04.379 UTC",32.245,61.74,-10.231,-36.855,-21.643,42.223,-78.565,-348.85
"2000-05-22 06:00:04.383 UTC",39.045,31.64,4.7689,-30.855,-0.7426,142.22,-246.56,-404.85
"2000-05-22 06:00:04.388 UTC",35.945,7.5404,14.669,-16.455,14.157,192.22,-268.56,-332.85
"2000-05-22 06:00:04.391 UTC",25.145,-14.06,15.969,-4.5554,24.357,208.22,-232.56,-236.85
"2000-05-22 06:00:04.396 UTC",15.545,-25.26,14.269,0.0446,26.057,162.22,-238.56,-176.85
"2000-05-22 06:00:04.399 UTC",8.6446,-29.46,13.469,4.4446,26.557,132.22,-234.56,-150.85
"2000-05-22 06:00:04.404 UTC",3.2446,-32.96,14.069,10.245,28.057,132.22,-240.56,-154.85
"2000-05-22 06:00:04.407 UTC",3.2446,-32.46,11.669,10.445,25.957,118.22,-224.56,-134.85
"2000-05-22 06:00:04.411 UTC",9.1446,-25.46,11.069,11.445,28.257,124.22,-210.56,-136.85
"2000-05-22 06:00:04.416 UTC",16.445,-16.36,8.4689,11.845,31.557,142.22,-172.56,-110.85
"2000-05-22 06:00:04.419 UTC",20.945,-12.06,1.6689,11.545,26.657,110.22,-180.56,-120.85
"2000-05-22 06:00:04.424 UTC",11.845,-15.96,-2.4311,10.545,19.057,88.223,-180.56,-100.85
"2000-05-22 06:00:04.427 UTC",-2.2554,-27.46,2.3689,7.4446,12.057,80.223,-166.56,-84.849
"2000-05-22 06:00:04.432 UTC",-13.955,-36.46,13.569,5.9446,13.457,108.22,-130.56,-60.849
"2000-05-22 06:00:04.435 UTC",-11.755,-35.36,15.569,5.4446,14.957,74.223,-130.56,-74.849
"2000-05-22 06:00:04.440 UTC",-2.7554,-27.56,13.369,6.5446,16.957,94.223,-106.56,-62.849
"2000-05-22 06:00:04.444 UTC",1.5446,-21.96,11.169,6.3446,14.357,56.223,-120.56,-76.849
"2000-05-22 06:00:04.447 UTC",3.8446,-17.76,9.9689,6.0446,13.257,80.223,-104.56,-78.849
"2000-05-22 06:00:04.452 UTC",2.4446,-16.86,9.1689,4.9446,12.957,84.223,-86.565,-42.849
"2000-05-22 06:00:04.455 UTC",2.2446,-16.06,9.1689,4.1446,11.557,62.223,-86.565,-46.849
"2000-05-22 06:00:04.460 UTC",0.4446,-15.06,6.9689,4.9446,10.957,58.223,-76.565,-34.849
"2000-05-22 06:00:04.463 UTC",2.2446,-14.56,7.0689,6.1446,9.9574,48.223,-70.565,-42.849
"2000-05-22 06:00:04.468 UTC",-0.1554,-14.16,5.4689,5.6446,10.057,80.223,-26.565,-10.849
"2000-05-22 06:00:04.472 UTC",-0.2554,-12.96,5.3689,4.0446,6.3574,38.223,-62.565,-32.849
"2000-05-22 06:00:04.475 UTC",-0.3554,-11.26,5.6689,4.6446,5.7574,56.223,-38.565,-32.849
"2000-05-22 06:00:04.480 UTC",-0.4554,-11.86,5.4689,3.0446,3.4574,38.223,-54.565,-24.849
"2000-05-22 06:00:04.483 UTC",0.3446,-9.5596,4.9689,2.4446,3.1574,38.223,-44.565,-18.849
"2000-05-22 06:00:04.488 UTC",-0.6554,-8.5596,2.4689,4.6446,2.8574,40.223,-20.565,-14.849
"2000-05-22 06:00:04.491 UTC",-0.6554,-8.3596,0.4689,5.3446,0.5574,18.223,-40.565,-28.849
"2000-05-22 06:00:04.496 UTC",-1.5554,-6.6596,-0.3311,4.8446,-0.2426,30.223,-30.565,-12.849
"2000-05-22 06:00:04.500 UTC",-1.6554,-6.3596,-2.6311,3.5446,-0.4426,24.223,-30.565,-20.849
"2000-05-22 06:00:04.503 UTC",-2.0554,-4.6596,-2.6311,2.6446,0.5574,16.223,-20.565,-14.849
"2000-05-22 06:00:04.508 UTC",-0.2554,-3.5596,-1.2311,1.8446,1.7574,28.223,-12.565,-16.849
"2000-05-22 06:00:04.511 UTC",0.2446,-4.3596,-0.8311,1.5446,1.6574,20.223,-8.565,-8.8493
"2000-05-22 06:00:04.516 UTC",0.9446,-4.3596,0.0689,4.1446,1.4574,32.223,1.435,3.1507
"2000-05-22 06:00:04.519 UTC",-0.3554,-4.6596,-1.0311,7.2446,-0.0426,14.223,-8.565,-6.8493
"2000-05-22 06:00:04.524 UTC",-1.6554,-3.0596,-3.4311,7.8446,-0.5426,16.223,5.435,17.151
"2000-05-22 06:00:04.527 UTC",-2.1554,-0.9596,-5.3311,8.6446,-2.7426,24.223,5.435,3.1507
"2000-05-22 06:00:04.531 UTC",-1.2554,-0.6596,-5.2311,5.5446,-3.9426,8.2229,1.435,11.151
"2000-05-22 06:00:04.536 UTC",-2.0554,-0.9596,-3.9311,5.9446,-2.7426,18.223,7.435,19.151
"2000-05-22 06:00:04.539 UTC",-3.1554,-2.1596,-6.3311,3.7446,-3.8426,-17.777,3.435,19.151
"2000-05-22 06:00:04.544 UTC",-2.1554,-0.7596,-4.1311,4.2446,-2.0426,4.2229,3.435,5.1507
"2000-05-22 06:00:04.547 UTC",-4.6554,-0.5596,-4.5311,2.5446,-2.9426,0.2229,19.435,33.151
"2000-05-22 06:00:04.552 UTC",-3.4554,0.1404,-6.6311,3.4446,-3.7426,-1.7771,11.435,23.151
"2000-05-22 06:00:04.555 UTC",-3.1554,-0.1596,-5.2311,4.9446,-4.1426,-7.7771,15.435,13.151
"2000-05-22 06:00:04.559 UTC",-1.4554,-0.9596,-6.7311,4.9446,-4.5426,-5.7771,29.435,31.151
"2000-05-22 06:00:04.564 UTC",-1.5554,1.5404,-5.9311,6.2446,-4.5426,-9.7771,33.435,59.151
"2000-05-22 06:00:04.567 UTC",-2.8554,3.1404,-5.9311,7.3446,-4.8426,-9.7771,41.435,49.151
"2000-05-22 06:00:04.572 UTC",-3.4554,2.2404,-4.7311,7.4446,-3.8426,-3.7771,49.435,43.151
"2000-05-22 06:00:04.575 UTC",-3.2554,2.2404,-5.0311,4.6446,-4.8426,-27.777,35.435,27.151
"2000-05-22 06:00:04.580 UTC",-4.3554,3.3404,-8.1311,4.2446,-5.1426,-23.777,47.435,61.151
"2000-05-22 06:00:04.583 UTC",-2.9554,6.1404,-7.5311,4.7446,-6.2426,-31.777,41.435,47.151
"2000-05-22 06:00:04.588 UTC",-1.6554,6.7404,-5.5311,5.0446,-5.0426,-17.777,51.435,45.151
"2000-05-22 06:00:04.592 UTC",-1.7554,6.8404,-6.6311,7.1446,-4.8426,-15.777,53.435,49.151
"2000-05-22 06:00:04.595 UTC",-1.6554,5.7404,-7.6311,5.8446,-4.9426,-33.777,43.435,49.151
"2000-05-22 06:00:04.600 UTC",-2.9554,5.4404,-8.0311,6.2446,-4.2426,-43.777,37.435,41.151
"2000-05-22 06:00:04.603 UTC",-3.7554,4.1404,-9.8311,7.1446,-4.1426,-45.777,39.435,45.151
"2000-05-22 06:00:04.608 UTC",-2.9554,3.9404,-9.3311,8.7446,-5.1426,-33.777,45.435,49.151
"2000-05-22 06:00:04.611 UTC",-2.7554,3.9404,-10.731,7.1446,-4.1426,-23.777,73.435,73.151
"2000-05-22 06:00:04.616 UTC",-0.3554,5.7404,-8.9311,6.7446,-3.0426,-35.777,45.435,47.151
"2000-05-22 06:00:04.620 UTC",-1.6554,5.3404,-8.1311,3.5446,-2.7426,-35.777,45.435,47.151
"2000-05-22 06:00:04.623 UTC",-3.8554,5.7404,-7.9311,5.6446,-2.2426,-21.777,43.435,37.151
"2000-05-22 06:00:04.628 UTC",-2.0554,6.2404,-6.2311,5.6446,-2.3426,-21.777,37.435,31.151
"2000-05-22 06:00:04.631 UTC",-2.1554,3.9404,-6.3311,7.1446,-1.2426,-11.777,55.435,55.151
"2000-05-22 06:00:04.636 UTC",-1.2554,3.0404,-4.5311,7.8446,-0.3426,-5.7771,41.435,55.151
"2000-05-22 06:00:04.639 UTC",0.5446,0.8404,-3.4311,6.6446,1.2574,-7.7771,39.435,65.151
"2000-05-22 06:00:04.644 UTC",2.1446,1.0404,-4.1311,6.3446,3.2574,-3.7771,17.435,29.151
"2000-05-22 06:00:04.648 UTC",0.6446,-1.7596,-2.9311,6.1446,4.2574,2.2229,11.435,33.151
"2000-05-22 06:00:04.651 UTC",0.4446,-2.2596,-0.2311,6.3446,5.3574,-1.7771,-18.565,1.1507
"2000-05-22 06:00:04.656 UTC",0.1446,-3.0596,2.0689,7.6446,6.3574,24.223,-0.565,3.1507
"2000-05-22 06:00:04.659 UTC",2.3446,-3.6596,1.7689,7.6446,6.4574,30.223,-16.565,-8.8493
"2000-05-22 06:00:04.664 UTC",4.3446,-4.4596,1.5689,7.3446,6.9574,22.223,-38.565,-30.849
"2000-05-22 06:00:04.667 UTC",4.1446,-5.3596,0.8689,5.2446,7.0574,50.223,-16.565,-12.849
"2000-05-22 06:00:04.672 UTC",6.2446,-5.4596,3.6689,3.7446,6.3574,30.223,-44.565,-40.849
"2000-05-22 06:00:04.675 UTC",6.4446,-5.6596,4.4689,5.0446,7.7574,38.223,-52.565,-58.849
"2000-05-22 06:00:04.679 UTC",6.8446,-6.5596,3.8689,2.2446,8.1574,34.223,-64.565,-74.849
"2000-05-22 06:00:04.684 UTC",6.7446,-6.9596,4.3689,1.2446,9.1574,40.223,-52.565,-76.849
"2000-05-22 06:00:04.687 UTC",6.2446,-6.7596,3.8689,1.0446,8.2574,42.223,-60.565,-76.849
"2000-05-22 06:00:04.692 UTC",7.3446,-6.8596,2.8689,2.9446,6.6574,22.223,-78.565,-76.849
"2000-05-22 06:00:04.695 UTC",8.6446,-5.1596,3.8689,4.2446,8.5574,58.223,-56.565,-66.849
"2000-05-22 06:00:04.700 UTC",6.6446,-7.0596,2.5689,1.4446,6.4574,34.223,-68.565,-82.849
"2000-05-22 06:00:04.703 UTC",6.3446,-6.5596,5.3689,2.9446,7.6574,46.223,-66.565,-84.849
"2000-05-22 06:00:04.707 UTC",6.1446,-5.1596,2.4689,2.8446,5.8574,18.223,-66.565,-86.849
"2000-05-22 06:00:04.712 UTC",9.1446,-5.5596,3.2689,2.7446,7.2574,34.223,-48.565,-64.849
"2000-05-22 06:00:04.715 UTC",9.6446,-4.6596,4.3689,2.9446,7.5574,32.223,-40.565,-60.849
"2000-05-22 06:00:04.720 UTC",8.6446,-3.1596,3.4689,1.9446,6.4574,28.223,-42.565,-52.849
"2000-05-22 06:00:04.723 UTC",8.0446,-0.9596,4.0689,3.6446,5.9574,22.223,-54.565,-70.849
"2000-05-22 06:00:04.728 UTC",6.3446,-2.9596,2.7689,3.7446,5.9574,32.223,-28.565,-40.849
"2000-05-22 06:00:04.731 UTC",7.3446,-1.3596,1.1689,4.1446,3.8574,6.2229,-52.565,-60.849
"2000-05-22 06:00:04.735 UTC",5.8446,-0.5596,0.1689,5.2446,3.9574,28.223,-30.565,-50.849
"2000-05-22 06:00:04.740 UTC",4.0446,-2.0596,0.1689,6.2446,5.4574,24.223,-18.565,-40.849
"2000-05-22 06:00:04.743 UTC",4.5446,-2.6596,1.8689,5.7446,6.2574,6.2229,-32.565,-48.849
"2000-05-22 06:00:04.748 UTC",4.1446,-2.4596,1.4689,4.1446,5.8574,-5.7771,-38.565,-42.849
"2000-05-22 06:00:04.751 UTC",3.3446,-1.8596,1.0689,5.2446,5.0574,4.2229,-28.565,-36.849
"2000-05-22 06:00:04.756 UTC",1.3446,-3.6596,0.2689,5.0446,3.5574,4.2229,-24.565,-30.849
"2000-05-22 06:00:04.759 UTC",1.8446,-3.7596,0.9689,5.0446,2.2574,10.223,-20.565,-30.849
"2000-05-22 06:00:04.764 UTC",1.2446,-4.0596,-0.7311,5.6446,1.9574,14.223,-6.565,-12.849
"2000-05-22 06:00:04.768 UTC",2.1446,-2.6596,-0.5311,4.7446,1.6574,0.2229,-18.565,-26.849
"2000-05-22 06:00:04.771 UTC",-0.6554,-3.1596,-2.0311,5.7446,1.0574,-3.7771,-20.565,-12.849
"2000-05-22 06:00:04.776 UTC",-1.4554,-1.9596,0.8689,7.2446,2.4574,-3.7771,-18.565,-14.849
"2000-05-22 06:00:04.779 UTC",-1.2554,-3.5596,0.5689,6.8446,3.8574,-1.7771,-6.565,-8.8493
"2000-05-22 06:00:04.784 UTC",-0.0554,-2.6596,1.3689,8.6446,3.8574,4.2229,-10.565,-12.849
"2000-05-22 06:00:04.787 UTC",0.0446,-1.1596,1.1689,6.8446,2.2574,0.2229,-4.565,-6.8493
"2000-05-22 06:00:04.792 UTC",-0.2554,-1.1596,-0.2311,4.1446,1.1574,-13.777,-14.565,-24.849
"2000-05-22 06:00:04.796 UTC",-0.5554,-1.9596,0.3689,3.0446,2.3574,2.2229,-8.565,-8.8493
"2000-05-22 06:00:04.799 UTC",-0.0554,-1.8596,0.2689,1.9446,0.1574,-5.7771,-12.565,-20.849
"2000-05-22 06:00:04.804 UTC",-0.0554,-3.3596,0.5689,1.7446,0.2574,-1.7771,-10.565,-20.849
"2000-05-22 06:00:04.807 UTC",0.9446,-4.4596,-0.1311,2.5446,-0.1426,4.2229,-2.565,-6.8493
"2000-05-22 06:00:04.812 UTC",1.8446,-3.4596,0.6689,2.9446,0.6574,0.2229,-10.565,-18.849
"2000-05-22 06:00:04.815 UTC",1.1446,-2.8596,-0.7311,3.8446,1.5574,0.2229,-10.565,-16.849
"2000-05-22 06:00:04.820 UTC",1.5446,-2.5596,-1.2311,3.9446,1.9574,2.2229,-4.565,-12.849
"2000-05-22 06:00:04.824 UTC",1.3446,-3.5596,-1.8311,2.4446,0.3574,0.2229,-16.565,-16.849
"2000-05-22 06:00:04.827 UTC",1.1446,-2.9596,-0.0311,3.5446,0.4574,6.2229,-12.565,-22.849
"2000-05-22 06:00:04.832 UTC",-0.3554,-3.7596,-1.8311,3.0446,0.9574,-1.7771,3.435,-4.8493
"2000-05-22 06:00:04.835 UTC",1.1446,-0.1596,-1.6311,4.4446,1.1574,-13.777,-10.565,-24.849
"2000-05-22 06:00:04.840 UTC",1.7446,0.7404,-2.5311,6.5446,2.5574,16.223,5.435,-14.849
"2000-05-22 06:00:04.843 UTC",2.2446,-0.0596,-2.4311,6.4446,1.2574,2.2229,-20.565,-38.849
"2000-05-22 06:00:04.848 UTC",3.2446,-1.6596,-2.5311,4.8446,2.0574,4.2229,-2.565,-10.849
"2000-05-22 06:00:04.851 UTC",1.7446,-2.4596,-1.9311,9.4446,2.8574,0.2229,-16.565,-16.849
"2000-05-22 06:00:04.855 UTC",3.5446,0.9404,-2.9311,11.045,5.0574,10.223,3.435,-12.849
"2000-05-22 06:00:04.860 UTC",9.1446,6.3404,-6.9311,9.6446,7.6574,-3.7771,-10.565,-20.849
"2000-05-22 06:00:04.863 UTC",16.545,12.04,-13.431,10.645,7.2574,4.2229,-6.565,-24.849
"2000-05-22 06:00:04.868 UTC",15.545,12.24,-19.131,9.2446,1.0574,4.2229,5.435,-12.849
"2000-05-22 06:00:04.871 UTC",7.0446,5.9404,-16.631,7.0446,-4.6426,-9.7771,-12.565,-20.849
"2000-05-22 06:00:04.876 UTC",-9.3554,-8.2596,-5.6311,3.6446,-7.1426,-1.7771,-26.565,-36.849
"2000-05-22 06:00:04.879 UTC",-16.055,-13.96,0.8689,-0.4554,-3.7426,2.2229,-8.565,-28.849
"2000-05-22 06:00:04.883 UTC",-8.8554,-7.3596,0.4689,2.3446,-0.2426,4.2229,-14.565,-34.849
"2000-05-22 06:00:04.888 UTC",-1.4554,-3.6596,0.0689,2.3446,2.2574,16.223,7.435,-14.849
"2000-05-22 06:00:04.891 UTC",-0.2554,-1.4596,0.6689,1.5446,2.7574,-3.7771,-20.565,-24.849
"2000-05-22 06:00:04.896 UTC",-0.8554,0.3404,0.6689,-0.0554,3.1574,0.2229,-10.565,-10.849
"2000-05-22 06:00:04.899 UTC",-2.6554,-0.7596,1.2689,0.7446,3.3574,2.2229,-10.565,-12.849
"2000-05-22 06:00:04.904 UTC",-1.5554,-1.1596,1.2689,0.8446,3.5574,8.2229,5.435,-2.8493
"2000-05-22 06:00:04.907 UTC",-1.8554,-0.2596,-0.3311,2.3446,2.7574,0.2229,5.435,-4.8493
"2000-05-22 06:00:04.911 UTC",-2.1554,-1.0596,0.7689,1.6446,2.6574,4.2229,3.435,-2.8493
"2000-05-22 06:00:04.916 UTC",-3.1554,-1.7596,-1.2311,2.9446,0.6574,6.2229,11.435,29.151
"2000-05-22 06:00:04.919 UTC",-3.7554,0.4404,-1.5311,3.6446,0.0574,4.2229,9.435,25.151
"2000-05-22 06:00:04.924 UTC",-2.8554,2.1404,-2.1311,4.1446,-0.7426,6.2229,17.435,19.151
"2000-05-22 06:00:04.927 UTC",-4.1554,2.0404,-3.5311,6.0446,-2.7426,4.2229,37.435,35.151
"2000-05-22 06:00:04.932 UTC",-4.1554,3.1404,-4.4311,6.9446,-3.2426,8.2229,33.435,39.151
"2000-05-22 06:00:04.935 UTC",-4.0554,3.8404,-3.8311,6.4446,-3.0426,34.223,51.435,35.151
"2000-05-22 06:00:04.940 UTC",-3.1554,0.8404,-5.9311,4.7446,-2.9426,28.223,35.435,25.151
"2000-05-22 06:00:04.944 UTC",-3.5554,1.1404,-4.6311,5.7446,-2.9426,28.223,37.435,33.151
"2000-05-22 06:00:04.947 UTC",-3.5554,3.5404,-4.4311,7.7446,-2.4426,26.223,43.435,39.151
"2000-05-22 06:00:04.952 UTC",-4.6554,2.3404,-5.2311,5.3446,-3.5426,28.223,43.435,35.151
"2000-05-22 06:00:04.955 UTC",-3.0554,2.7404,-4.4311,3.7446,-3.8426,0.2229,-6.565,-12.849
"2000-05-22 06:00:04.960 UTC",-1.5554,0.9404,-3.7311,3.4446,-2.1426,4.2229,15.435,-8.8493
"2000-05-22 06:00:04.963 UTC",0.8446,3.3404,-2.6311,-0.4554,-3.7426,-33.777,-8.565,-30.849
"2000-05-22 06:00:04.968 UTC",4.0446,6.9404,-1.0311,1.1446,-3.0426,-31.777,-18.565,-38.849
"2000-05-22 06:00:04.972 UTC",3.3446,3.1404,-2.7311,-0.6554,-2.0426,-17.777,-6.565,-20.849
"2000-05-22 06:00:04.975 UTC",2.5446,1.9404,-1.8311,0.4446,-0.9426,-21.777,-2.565,-10.849
"2000-05-22 06:00:04.980 UTC",5.2446,2.8404,-0.1311,0.1446,0.8574,-21.777,-16.565,-20.849
"2000-05-22 06:00:04.983 UTC",5.8446,1.5404,0.8689,1.8446,2.9574,-3.7771,-16.565,-26.849
"2000-05-22 06:00:04.988 UTC",5.9446,-0.5596,0.1689,1.4446,0.9574,-27.777,-30.565,-42.849
"2000-05-22 06:00:04.991 UTC",4.7446,-0.9596,-0.6311,1.2446,1.1574,-15.777,-30.565,-46.849
"2000-05-22 06:00:04.996 UTC",3.1446,-1.2596,-0.0311,0.3446,1.5574,-17.777,-28.565,-42.849
"2000-05-22 06:00:05.000 UTC",3.3446,-0.3596,0.1689,1.0446,1.6574,-11.777,-24.565,-32.849
"2000-05-22 06:00:05.003 UTC",4.5446,-1.9596,-0.5311,1.5446,1.2574,-3.7771,-22.565,-18.849
"2000-05-22 06:00:05.008 UTC",4.1446,-1.6596,-0.4311,1.9446,1.1574,-19.777,-38.565,-50.849
"2000-05-22 06:00:05.011 UTC",3.1446,-1.2596,1.9689,3.9446,3.4574,4.2229,-16.565,-38.849
"2000-05-22 06:00:05.016 UTC",3.7446,-0.1596,0.8689,0.7446,1.8574,-15.777,-26.565,-42.849
"2000-05-22 06:00:05.019 UTC",5.5446,0.8404,-1.1311,2.5446,2.0574,-25.777,-40.565,-56.849
"2000-05-22 06:00:05.024 UTC",4.5446,-2.1596,-1.5311,3.4446,2.0574,-15.777,-28.565,-38.849
"2000-05-22 06:00:05.027 UTC",4.3446,-3.3596,-3.2311,4.5446,2.7574,-11.777,-18.565,-18.849
"2000-05-22 06:00:05.031 UTC",4.0446,-1.2596,-2.2311,3.6446,1.9574,-19.777,-22.565,-18.849
"2000-05-22 06:00:05.036 UTC",5.9446,0.4404,-0.9311,3.6446,3.7574,4.2229,-2.565,-12.849
"2000-05-22 06:00:05.039 UTC",4.5446,-0.7596,-2.0311,2.5446,2.0574,-7.7771,-2.565,-10.849
"2000-05-22 06:00:05.044 UTC",6.4446,-1.4596,-2.6311,2.5446,1.7574,-17.777,-22.565,-32.849
"2000-05-22 06:00:05.047 UTC",5.6446,-0.5596,-3.5311,2.0446,1.9574,-7.7771,-14.565,-2.8493
"2000-05-22 06:00:05.052 UTC",7.4446,1.6404,-3.9311,3.9446,1.9574,-21.777,-14.565,-2.8493
"2000-05-22 06:00:05.055 UTC",4.8446,1.0404,-2.4311,3.7446,3.4574,-1.7771,3.435,-4.8493
"2000-05-22 06:00:05.059 UTC",1.4446,-0.2596,-2.9311,3.6446,2.0574,-17.777,-6.565,-12.849
"2000-05-22 06:00:05.064 UTC",2.6446,0.7404,-1.0311,4.5446,2.6574,4.2229,-12.565,-24.849
"2000-05-22 06:00:05.067 UTC",2.2446,-1.5596,-0.0311,5.4446,5.2574,20.223,-32.565,-22.849
"2000-05-22 06:00:05.072 UTC",2.9446,-6.5596,1.0689,7.3446,8.8574,58.223,-26.565,-2.8493
"2000-05-22 06:00:05.075 UTC",1.9446,-9.3596,2.3689,9.0446,9.2574,38.223,-64.565,-24.849
"2000-05-22 06:00:05.080 UTC",-0.7554,-8.7596,1.9689,14.945,10.457,74.223,-10.565,23.151
"2000-05-22 06:00:05.083 UTC",-4.3554,-5.9596,-4.7311,13.345,1.5574,30.223,91.435,121.15
"2000-05-22 06:00:05.088 UTC",-9.2554,6.0404,-13.531,16.945,-10.443,-55.777,223.44,265.15
"2000-05-22 06:00:05.092 UTC",-21.855,19.24,-25.431,18.445,-27.643,-195.78,421.43,457.15
"2000-05-22 06:00:05.095 UTC",-29.855,43.14,-41.331,16.645,-52.843,-425.78,545.43,565.15
"2000-05-22 06:00:05.100 UTC",-34.155,65.74,-52.731,18.245,-66.843,-553.78,691.43,697.15
"2000-05-22 06:00:05.103 UTC",-40.255,80.84,-65.531,11.945,-82.743,-677.78,815.43,785.15
"2000-05-22 06:00:05.108 UTC",-40.155,96.64,-71.231,5.2446,-91.443,-639.78,801.43,641.15
"2000-05-22 06:00:05.111 UTC",-23.255,96.34,-60.631,-9.7554,-79.143,-467.78,573.43,291.15
"2000-05-22 06:00:05.116 UTC",4.9446,86.94,-36.831,-24.355,-54.643,-229.78,255.44,-50.849
"2000-05-22 06:00:05.120 UTC",26.145,64.14,-14.831,-32.055,-27.443,-45.777,-38.565,-280.85
"2000-05-22 06:00:05.123 UTC",35.945,36.14,3.8689,-29.355,-4.2426,110.22,-212.56,-384.85
"2000-05-22 06:00:05.128 UTC",35.045,11.24,11.769,-20.755,10.857,174.22,-266.56,-344.85
"2000-05-22 06:00:05.131 UTC",27.245,-7.2596,12.769,-7.5554,18.557,178.22,-262.56,-260.85
"2000-05-22 06:00:05.136 UTC",17.645,-20.36,13.569,1.1446,22.957,160.22,-252.56,-208.85
"2000-05-22 06:00:05.139 UTC",11.045,-26.16,13.469,5.9446,24.057,156.22,-218.56,-146.85
"2000-05-22 06:00:05.144 UTC",8.4446,-26.86,13.669,9.7446,22.557,158.22,-200.56,-120.85
"2000-05-22 06:00:05.148 UTC",8.1446,-28.46,12.169,8.9446,20.957,150.22,-188.56,-132.85
"2000-05-22 06:00:05.151 UTC",10.745,-28.66,13.169,9.8446,21.257,140.22,-196.56,-128.85
"2000-05-22 06:00:05.156 UTC",10.345,-27.26,11.969,7.9446,20.957,132.22,-178.56,-118.85
"2000-05-22 06:00:05.159 UTC",7.3446,-27.26,12.969,7.4446,19.757,130.22,-160.56,-102.85
"2000-05-22 06:00:05.164 UTC",8.2446,-24.06,14.469,6.7446,18.357,110.22,-164.56,-110.85
"2000-05-22 06:00:05.167 UTC",5.1446,-23.36,10.869,5.2446,16.857,104.22,-164.56,-118.85
"2000-05-22 06:00:05.172 UTC",5.8446,-20.26,8.4689,3.0446,14.657,102.22,-150.56,-98.849
"2000-05-22 06:00:05.175 UTC",7.5446,-18.96,7.7689,4.1446,14.057,108.22,-122.56,-90.849
"2000-05-22 06:00:05.179 UTC",8.8446,-16.56,8.0689,8.1446,13.757,110.22,-98.565,-64.849
"2000-05-22 06:00:05.184 UTC",7.9446,-13.16,7.5689,7.9446,12.357,80.223,-122.56,-70.849
"2000-05-22 06:00:05.187 UTC",6.2446,-14.76,5.6689,6.3446,11.457,76.223,-116.56,-60.849
"2000-05-22 06:00:05.192 UTC",6.8446,-13.56,6.0689,3.9446,11.057,66.223,-96.565,-60.849
"2000-05-22 06:00:05.195 UTC",7.0446,-12.06,4.7689,4.4446,10.357,72.223,-80.565,-62.849
"2000-05-22 06:00:05.200 UTC",6.2446,-11.66,5.5689,4.2446,7.8574,62.223,-70.565,-54.849
"2000-05-22 06:00:05.203 UTC",4.0446,-12.06,4.0689,2.9446,7.8574,54.223,-70.565,-62.849
"2000-05-22 06:00:05.207 UTC",5.2446,-8.1596,5.0689,4.5446,8.3574,50.223,-62.565,-38.849
"2000-05-22 06:00:05.212 UTC",4.2446,-9.4596,2.5689,3.2446,7.2574,40.223,-72.565,-44.849
"2000-05-22 06:00:05.215 UTC",4.7446,-9.3596,2.6689,6.3446,8.0574,50.223,-42.565,-22.849
"2000-05-22 06:00:05.220 UTC",4.4446,-10.06,0.2689,6.7446,6.8574,32.223,-50.565,-40.849
"2000-05-22 06:00:05.223 UTC",1.3446,-8.9596,-0.7311,5.9446,5.8574,34.223,-44.565,-30.849
"2000-05-22 06:00:05.228 UTC",1.6446,-6.3596,1.6689,6.5446,5.8574,38.223,-30.565,-18.849
"2000-05-22 06:00:05.231 UTC",2.9446,-5.2596,1.9689,4.0446,5.1574,40.223,-14.565,-0.8493
"2000-05-22 06:00:05.235 UTC",3.8446,-4.3596,3.3689,2.7446,4.7574,30.223,-24.565,-4.8493
"2000-05-22 06:00:05.240 UTC",2.9446,-4.8596,0.2689,2.3446,2.1574,20.223,-36.565,-30.849
"2000-05-22 06:00:05.243 UTC",1.8446,-4.8596,-0.9311,3.1446,2.8574,26.223,-32.565,-16.849
"2000-05-22 06:00:05.248 UTC",3.1446,-4.2596,-1.8311,4.6446,2.2574,28.223,-22.565,-8.8493
"2000-05-22 06:00:05.251 UTC",4.4446,-3.6596,0.0689,3.4446,2.8574,42.223,-6.565,13.151
"2000-05-22 06:00:05.256 UTC",5.2446,-2.6596,0.5689,0.7446,2.2574,32.223,-8.565,-4.8493
"2000-05-22 06:00:05.259 UTC",3.0446,-3.6596,-0.8311,0.4446,1.2574,20.223,-26.565,-24.849
"2000-05-22 06:00:05.264 UTC",1.2446,-2.8596,0.9689,4.3446,1.5574,34.223,-2.565,-10.849
"2000-05-22 06:00:05.268 UTC",2.1446,-2.6596,-0.9311,3.3446,-0.0426,0.2229,-8.565,-6.8493
"2000-05-22 06:00:05.271 UTC",0.1446,-0.0596,-2.1311,4.7446,0.4574,10.223,1.435,15.151
"2000-05-22 06:00:05.276 UTC",0.7446,0.9404,-4.1311,3.3446,-0.9426,0.2229,-6.565,9.1507
"2000-05-22 06:00:05.279 UTC",2.4446,0.5404,-1.9311,2.8446,0.0574,24.223,-2.565,5.1507
"2000-05-22 06:00:05.284 UTC",1.2446,0.3404,-4.6311,1.8446,-0.9426,10.223,7.435,27.151
"2000-05-22 06:00:05.287 UTC",0.1446,2.1404,-3.3311,3.8446,0.5574,22.223,27.435,25.151
"2000-05-22 06:00:05.292 UTC",-0.4554,-0.9596,-4.1311,3.9446,0.0574,-9.7771,1.435,5.1507
"2000-05-22 06:00:05.296 UTC",-1.5554,0.7404,-4.6311,4.6446,0.7574,-5.7771,17.435,11.151
"2000-05-22 06:00:05.299 UTC",1.5446,3.4404,-4.4311,5.9446,1.0574,-13.777,11.435,7.1507
"2000-05-22 06:00:05.304 UTC",5.3446,10.04,-6.0311,7.6446,4.4574,4.2229,31.435,37.151
"2000-05-22 06:00:05.307 UTC",14.845,15.04,-10.931,7.5446,4.8574,-1.7771,37.435,23.151
"2000-05-22 06:00:05.312 UTC",16.445,17.94,-18.431,6.9446,-0.2426,-7.7771,27.435,19.151
"2000-05-22 06:00:05.315 UTC",8.7446,14.14,-18.931,4.1446,-6.9426,-7.7771,43.435,43.151
"2000-05-22 06:00:05.320 UTC",-7.2554,-0.1596,-12.031,-0.0554,-13.743,-25.777,35.435,49.151
"2000-05-22 06:00:05.324 UTC",-17.155,-8.0596,-1.4311,0.1446,-12.343,-41.777,23.435,25.151
"2000-05-22 06:00:05.327 UTC",-14.055,-6.3596,-1.3311,2.4446,-7.0426,-21.777,35.435,31.151
"2000-05-22 06:00:05.332 UTC",-7.7554,-1.5596,-5.3311,2.0446,-5.3426,-37.777,49.435,49.151
"2000-05-22 06:00:05.335 UTC",-2.5554,4.0404,-5.7311,2.6446,-3.8426,-27.777,47.435,35.151
"2000-05-22 06:00:05.340 UTC",-4.0554,5.3404,-6.1311,2.3446,-3.2426,-35.777,51.435,43.151
"2000-05-22 06:00:05.343 UTC",-3.2554,6.5404,-6.2311,0.8446,-3.4426,-33.777,55.435,55.151
"2000-05-22 06:00:05.348 UTC",-3.9554,6.7404,-5.5311,3.0446,-2.6426,-19.777,57.435,47.151
